591	96	620	0	15	314	1	100	0	0	1	146	150	153	155	158	163	165	169	176	184	191	199	209	219	229	241	253	268	282	297	311	324	337	349	359	369	375	377	375	370	360	347	331	313	291	265	236	203	168	131	95	61	29	-3	-33	-59	-81	-100	-114	-123	-1618	-1531	-1442	-1350	-1252	-8292	-8316	-8372	-8360	-8308	-7056	-6960	-6908	-6920	-6980	6984	6916	6928	6960	6888
592	96	620	0	15	314	1	100	0	0	0	-128	-132	-136	-139	-139	-139	-138	-135	-132	-128	-124	-120	-115	-108	-100	-94	-88	-78	-71	-71	-70	-63	-55	-52	-51	-50	-48	-47	-46	-44	-42	-40	-40	-41	-40	-40	-41	-41	-38	-33	-29	-25	-22	-22	-25	-31	-39	-46	-50	-52	-1149	-1043	-936	-829	-723	-8232	-8280	-8448	-8548	-8376	-7056	-6952	-6764	-6796	-6728	6800	6812	6856	6760	6852
593	96	620	0	15	314	1	100	0	0	0	-53	-55	-57	-57	-56	-56	-56	-56	-54	-51	-49	-46	-42	-39	-37	-36	-33	-27	-13	17	68	145	254	382	476	464	318	55	-285	-637	-926	-1081	-1071	-918	-677	-431	-241	-113	-25	33	66	87	103	114	118	121	126	129	130	132	-621	-522	-427	-336	-249	-8376	-8368	-8364	-8288	-8140	-7100	-7264	-7356	-7300	-6908	6984	6980	6864	6876	6864
594	96	600	0	15	314	1	100	0	0	1	137	140	140	138	138	139	140	141	144	148	153	159	166	175	186	198	213	228	245	261	278	295	311	324	333	336	335	333	327	318	306	291	273	254	233	208	179	148	116	83	50	18	-10	-37	-62	-82	-102	-118	-128	-132	-169	-96	-32	25	75	-8216	-8316	-8540	-8516	-8380	-6780	-6780	-6840	-6836	-6876	6820	6720	6740	6824	6812
595	96	600	0	15	314	1	100	0	0	0	-133	-134	-136	-137	-137	-136	-134	-132	-129	-123	-117	-110	-104	-97	-90	-85	-82	-80	-76	-71	-66	-61	-57	-52	-48	-45	-43	-42	-38	-33	-31	-30	-31	-31	-28	-26	-26	-26	-25	-25	-26	-29	-30	-26	-20	-13	-10	-11	-15	-20	120	159	194	223	246	-8368	-8320	-8416	-8404	-8376	-6912	-6924	-6932	-6876	-6932	6836	6968	6932	6848	6788
596	96	600	0	15	314	1	100	0	0	0	-28	-36	-44	-49	-53	-55	-55	-56	-59	-61	-62	-60	-59	-58	-55	-52	-50	-47	-46	-47	-46	-38	-17	23	85	177	295	406	439	344	114	-229	-610	-943	-1156	-1200	-1080	-844	-575	-345	-181	-72	-2	43	72	89	98	104	108	115	265	282	297	311	325	-8368	-8344	-8336	-8272	-8328	-6976	-6992	-6996	-6964	-6996	6796	6796	6768	6872	6876
597	96	616	0	15	314	1	100	0	0	1	129	135	140	144	148	154	161	166	172	178	184	190	197	203	208	217	229	243	260	277	292	306	322	338	355	368	378	384	388	391	390	385	375	362	346	327	304	278	249	219	186	152	116	82	47	12	-21	-50	-76	-98	336	347	358	368	380	-8332	-8384	-8424	-8392	-8376	-6928	-6916	-6928	-6944	-6932	6904	6864	6892	6860	6904
598	96	616	0	15	314	1	100	0	0	0	-117	-131	-142	-148	-153	-157	-159	-158	-157	-157	-157	-156	-152	-148	-144	-141	-138	-136	-134	-132	-128	-121	-115	-109	-103	-100	-98	-96	-96	-96	-94	-91	-90	-87	-84	-81	-80	-80	-80	-81	-81	-80	-77	-75	-72	-70	-72	-75	-78	-78	392	407	423	439	457	-8388	-8356	-8368	-8360	-8360	-6912	-6928	-6940	-6944	-6924	6840	6780	6808	6780	6752
599	96	616	0	15	314	1	100	0	0	0	-74	-67	-60	-56	-57	-62	-71	-80	-89	-97	-103	-107	-109	-112	-117	-123	-126	-126	-124	-121	-119	-120	-122	-125	-129	-133	-134	-134	-127	-107	-68	-8	79	194	306	347	267	60	-251	-606	-929	-1152	-1220	-1134	-934	-688	-467	-305	-194	-122	475	493	511	529	548	-8352	-8368	-8332	-8392	-8432	-6928	-6920	-6920	-6924	-6828	6796	6828	6808	6784	6880
600	97	632	0	15	314	1	100	0	0	1	-81	-56	-36	-20	-13	-10	-5	1	7	10	12	15	18	20	25	32	37	41	46	51	58	65	73	83	93	105	122	138	154	169	184	200	219	236	248	254	256	256	253	248	242	232	217	197	174	148	120	91	60	26	567	587	609	632	657	-8336	-8332	-8440	-8356	-8376	-6904	-6884	-6892	-6940	-6904	6760	6824	6824	6812	6800
601	97	632	0	15	314	1	100	0	0	0	-11	-50	-87	-122	-152	-179	-202	-223	-240	-253	-263	-273	-282	-288	-290	-291	-291	-288	-286	-281	-273	-265	-258	-254	-251	-250	-250	-249	-248	-246	-243	-238	-234	-230	-229	-229	-228	-227	-226	-225	-223	-222	-223	-224	-226	-227	-227	-228	-229	-230	686	717	749	782	816	-8328	-8372	-8380	-8368	-8364	-6924	-6892	-6932	-6960	-6964	6800	6868	6780	6788	6756
602	97	632	0	15	314	1	100	0	0	0	-230	-228	-224	-221	-220	-219	-217	-216	-217	-218	-215	-211	-206	-201	-200	-204	-210	-218	-226	-232	-235	-237	-239	-240	-242	-245	-249	-251	-252	-251	-250	-250	-251	-251	-251	-248	-245	-243	-236	-216	-175	-108	-12	112	228	265	165	-71	-413	-788	849	882	913	942	968	-8332	-8344	-8356	-8332	-8332	-6932	-6928	-6980	-6940	-6960	6812	6760	6820	6824	6748
603	97	632	0	15	314	1	100	0	0	0	-1112	-1318	-1366	-1258	-1036	-773	-543	-376	-261	-183	-135	-107	-87	-73	-65	-59	-52	-47	-44	-43	-39	-33	-27	-20	-15	-10	-5	0	5	11	17	25	33	44	56	68	83	99	117	138	159	178	195	208	219	231	241	247	247	242	992	1012	1030	1045	1058	-8380	-8360	-8396	-8368	-8392	-6928	-6908	-6916	-6940	-6964	6764	6640	6904	6768	6800
604	97	640	0	15	314	1	100	0	0	1	221	206	188	165	140	113	83	49	14	-21	-56	-91	-123	-153	-179	-201	-218	-232	-242	-250	-258	-265	-269	-270	-269	-267	-265	-261	-255	-248	-243	-238	-234	-229	-224	-220	-215	-210	-206	-202	-199	-196	-195	-194	-192	-190	-188	-185	-182	-181	1070	1081	1091	1101	1111	-8368	-8356	-8308	-8336	-8400	-6936	-6900	-6908	-6916	-6964	6876	6824	6900	6808	6800
605	97	640	0	15	314	1	100	0	0	0	-180	-180	-182	-183	-181	-178	-177	-180	-183	-183	-184	-186	-187	-189	-189	-186	-182	-177	-172	-165	-162	-161	-160	-158	-152	-142	-133	-127	-126	-130	-137	-144	-151	-155	-156	-157	-157	-158	-159	-159	-157	-156	-158	-160	-161	-161	-161	-160	-160	-159	1119	1127	1133	1139	1143	-8376	-8316	-8320	-8356	-8352	-6968	-6988	-6952	-6936	-6896	6784	6848	6836	6816	6776
606	97	640	0	15	314	1	100	0	0	0	-156	-151	-138	-110	-61	13	117	236	322	304	145	-146	-517	-881	-1158	-1290	-1255	-1078	-819	-558	-356	-218	-128	-69	-29	-4	9	17	24	32	42	49	54	57	60	63	67	73	79	84	90	96	101	108	117	127	140	153	165	177	1146	1147	1148	1146	1143	-8392	-8344	-8396	-8324	-8384	-6916	-6952	-6876	-6936	-6940	6780	6824	6860	6792	6836
607	97	656	0	15	314	1	100	0	0	1	190	207	226	247	266	284	300	315	326	333	336	335	334	333	329	316	300	281	260	235	209	180	146	111	77	45	9	-27	-58	-86	-108	-123	-137	-151	-162	-168	-170	-170	-169	-167	-165	-162	-159	-155	-150	-144	-136	-130	-127	-124	1139	1134	1129	1124	1121	-8356	-8388	-8356	-8356	-8380	-6964	-6980	-6944	-6932	-6968	6788	6816	6820	6836	6768
608	97	656	0	15	314	1	100	0	0	0	-121	-118	-115	-111	-107	-101	-95	-91	-88	-86	-83	-80	-78	-77	-78	-78	-77	-77	-78	-77	-76	-75	-75	-75	-77	-79	-79	-77	-73	-71	-68	-65	-64	-61	-57	-57	-58	-57	-51	-40	-30	-24	-23	-26	-33	-40	-46	-52	-57	-59	1117	1114	1110	1106	1101	-8408	-8376	-8360	-8352	-8360	-6952	-6932	-6936	-6940	-6960	6816	6832	6812	6792	6792
609	97	656	0	15	314	1	100	0	0	0	-61	-64	-69	-74	-79	-81	-79	-76	-74	-73	-73	-73	-73	-74	-76	-75	-69	-51	-16	42	127	235	339	377	295	83	-235	-598	-925	-1139	-1187	-1077	-857	-600	-378	-222	-118	-45	0	25	43	57	64	69	75	80	83	85	88	91	1096	1089	1081	1071	1059	-8344	-8328	-8380	-8368	-8340	-6924	-6948	-6940	-6940	-6920	6768	6788	6776	6864	6860
610	96	660	0	15	314	1	100	0	0	1	93	97	103	106	107	108	110	115	122	130	140	150	159	170	181	195	211	227	242	256	270	287	302	313	318	317	313	308	300	290	275	254	231	206	177	148	117	85	53	20	-13	-47	-81	-113	-139	-161	-179	-193	-204	-210	1045	1032	1018	1007	998	-8392	-8392	-8392	-8348	-8348	-6944	-6936	-6900	-6896	-6932	6812	6800	6844	6840	6776
611	96	660	0	15	314	1	100	0	0	0	-217	-220	-223	-226	-226	-225	-221	-216	-212	-207	-203	-198	-193	-189	-186	-183	-181	-178	-175	-174	-174	-173	-173	-173	-172	-171	-169	-167	-165	-164	-165	-163	-162	-163	-163	-165	-166	-168	-169	-171	-172	-171	-167	-163	-160	-160	-161	-162	-162	-159	991	988	987	987	987	-8356	-8332	-8356	-8352	-8360	-6924	-6936	-6944	-6936	-6920	6772	6780	6772	6740	6792
612	96	660	0	15	314	1	100	0	0	0	-153	-146	-139	-137	-141	-149	-157	-162	-168	-173	-177	-180	-181	-183	-186	-192	-195	-196	-195	-194	-193	-192	-192	-193	-194	-196	-196	-192	-179	-148	-100	-28	71	184	263	237	77	-198	-543	-888	-1161	-1295	-1268	-1105	-864	-623	-435	-306	-219	-165	989	992	996	1003	1014	-8332	-8360	-8380	-8368	-8300	-6948	-6972	-6940	-6932	-6968	6768	6852	6812	6780	6732
613	96	648	0	15	314	1	100	0	0	1	-136	-117	-100	-87	-82	-80	-75	-69	-65	-61	-58	-54	-53	-52	-50	-46	-41	-35	-28	-23	-17	-9	1	12	23	33	43	56	73	92	112	129	145	157	167	174	178	178	175	169	159	146	131	114	94	71	44	14	-19	-51	1026	1041	1057	1075	1095	-8352	-8356	-8364	-8352	-8360	-6940	-6916	-6920	-6928	-6936	6884	6828	6740	6860	6848
614	96	648	0	15	314	1	100	0	0	0	-83	-113	-142	-169	-194	-215	-233	-248	-258	-266	-271	-274	-277	-282	-284	-284	-281	-277	-272	-269	-265	-262	-257	-250	-241	-234	-228	-226	-225	-222	-218	-213	-208	-205	-204	-203	-202	-200	-199	-197	-194	-193	-194	-193	-192	-190	-189	-190	-190	-187	1116	1139	1161	1183	1202	-8324	-8340	-8376	-8384	-8352	-6888	-6940	-6960	-6964	-6928	6824	6796	6812	6784	6824
615	96	648	0	15	314	1	100	0	0	0	-183	-179	-175	-172	-170	-168	-167	-163	-154	-144	-133	-128	-130	-134	-139	-146	-152	-156	-157	-158	-159	-160	-163	-167	-170	-170	-170	-169	-167	-167	-165	-162	-160	-159	-158	-153	-140	-109	-55	26	135	255	334	300	119	-193	-574	-934	-1195	-1302	1219	1234	1245	1253	1257	-8348	-8356	-8360	-8368	-8368	-6916	-6924	-6940	-6936	-6976	6800	6828	6804	6800	6800
616	96	648	0	15	314	1	100	0	0	0	-1244	-1054	-795	-541	-344	-211	-125	-70	-37	-16	1	15	25	32	36	39	41	44	47	49	51	56	61	65	71	77	83	91	98	105	112	123	136	150	165	182	200	220	241	261	277	291	302	309	311	311	308	303	294	281	1259	1258	1253	1246	1236	-8372	-8360	-8368	-8356	-8364	-6852	-6908	-6976	-6956	-6980	6864	6892	6800	6780	6804
617	96	632	0	15	314	1	100	0	0	1	265	245	223	196	164	131	100	67	35	2	-31	-61	-86	-108	-126	-141	-155	-167	-178	-184	-186	-186	-186	-186	-184	-180	-175	-169	-163	-158	-154	-150	-145	-141	-136	-131	-125	-121	-116	-110	-107	-103	-100	-96	-91	-88	-87	-87	-90	-91	1225	1212	1199	1186	1172	-8360	-8356	-8356	-8376	-8384	-6928	-6940	-6944	-7000	-6924	6860	6844	6852	6812	6832
618	96	632	0	15	314	1	100	0	0	0	-89	-86	-83	-82	-82	-82	-81	-77	-73	-70	-71	-71	-67	-60	-49	-39	-35	-37	-42	-49	-58	-66	-73	-77	-79	-80	-83	-87	-90	-91	-90	-90	-89	-88	-88	-87	-86	-88	-90	-89	-85	-74	-48	0	71	170	285	378	385	256	1158	1143	1129	1115	1102	-8356	-8328	-8344	-8348	-8376	-6936	-6992	-6936	-6928	-6932	6804	6824	6832	6856	6848
619	96	632	0	15	314	1	100	0	0	0	-375	-751	-1054	-1217	-1211	-1058	-812	-549	-334	-186	-91	-31	9	35	50	59	66	71	75	77	82	86	89	91	93	94	96	98	98	100	106	114	122	130	138	147	157	170	185	201	217	235	252	268	283	296	306	313	317	318	1088	1073	1058	1042	1025	-8364	-8356	-8364	-8352	-8376	-6924	-6924	-6944	-6928	-6952	6860	6876	6880	6832	6840
620	96	620	0	15	314	1	100	0	0	1	316	309	298	285	267	246	223	196	165	134	103	68	32	-4	-39	-71	-102	-129	-152	-171	-186	-197	-206	-214	-221	-225	-226	-227	-227	-227	-226	-226	-225	-223	-221	-219	-216	-216	-216	-214	-212	-209	-207	-205	-206	-207	-206	-206	-205	-204	1009	993	978	965	953	-8380	-8356	-8356	-8388	-8388	-6924	-6948	-6960	-6976	-6940	6856	6832	6792	6904	6796
621	96	620	0	18	314	1	100	0	0	0	-205	-208	-211	-213	-216	-219	-223	-225	-226	-228	-231	-233	-235	-236	-236	-236	-236	-235	-235	-236	-235	-232	-230	-230	-231	-230	-222	-211	-203	-202	-208	-216	-224	-232	-239	-243	-245	-245	-248	-254	-261	-264	-264	-263	-262	-262	-263	-264	-263	-262	943	934	926	919	914	-8408	-8344	-8376	-8372	-8360	-6952	-6928	-6932	-6948	-6952	6852	6864	6828	6852	6836
622	96	620	0	18	315	1	100	0	0	0	-262	-263	-263	-259	-247	-215	-162	-82	24	132	188	129	-68	-384	-757	-1101	-1338	-1413	-1323	-1111	-846	-604	-427	-309	-235	-191	-164	-144	-128	-117	-110	-106	-101	-97	-93	-87	-81	-77	-74	-71	-65	-58	-51	-45	-40	-33	-21	-10	-1	8	908	902	896	889	882	-8372	-8396	-8368	-8360	-8400	-6936	-6968	-6952	-6948	-6924	6860	6824	6832	6856	6864
623	96	656	0	18	315	1	100	0	0	1	19	33	49	68	86	103	120	136	152	165	177	185	190	192	191	185	177	167	154	137	115	90	65	37	7	-26	-62	-98	-133	-166	-195	-219	-239	-256	-269	-279	-288	-296	-301	-303	-304	-302	-299	-295	-290	-283	-274	-267	-262	-257	874	866	859	853	847	-8344	-8376	-8344	-8352	-8388	-6940	-6928	-6900	-6944	-6944	6776	6832	6824	6816	6836
624	96	656	0	18	315	1	100	0	0	0	-253	-250	-247	-242	-237	-232	-226	-220	-214	-210	-208	-208	-208	-208	-208	-208	-207	-205	-200	-197	-196	-195	-195	-194	-193	-194	-196	-197	-197	-196	-194	-191	-188	-184	-182	-183	-185	-186	-183	-176	-166	-157	-152	-153	-158	-167	-179	-189	-196	-198	842	838	833	830	826	-8364	-8392	-8340	-8320	-8336	-6940	-6928	-6928	-6932	-6936	6816	6792	6800	6832	6848
625	96	656	0	18	315	1	100	0	0	0	-198	-198	-200	-202	-204	-206	-209	-212	-213	-211	-209	-208	-207	-206	-206	-205	-205	-198	-176	-134	-73	16	125	227	257	163	-52	-362	-711	-1024	-1227	-1268	-1157	-942	-694	-481	-328	-224	-155	-117	-95	-76	-61	-54	-53	-50	-43	-38	-34	-31	823	819	815	809	802	-8372	-8392	-8356	-8364	-8324	-6944	-6916	-6932	-6936	-6976	6824	6848	6832	6788	6776
626	96	656	0	18	315	1	100	0	0	1	-22	-19	-15	-9	-5	-1	3	8	14	21	29	39	49	58	69	82	99	119	138	155	169	183	197	207	213	214	211	204	195	184	171	155	135	110	80	49	20	-10	-41	-74	-106	-136	-163	-186	-206	-223	-237	-247	-254	-258	792	781	769	755	742	-8364	-8368	-8396	-8380	-8368	-6924	-6924	-6964	-6928	-6912	6804	6800	6780	6820	6800
627	96	656	0	18	315	1	100	0	0	0	-262	-265	-268	-270	-269	-265	-260	-254	-248	-245	-246	-244	-240	-234	-226	-218	-214	-212	-211	-211	-208	-205	-202	-199	-198	-197	-196	-196	-197	-197	-196	-197	-198	-198	-197	-197	-197	-198	-200	-201	-199	-198	-198	-198	-197	-197	-198	-197	-194	-190	728	715	702	687	672	-8368	-8372	-8364	-8376	-8332	-6904	-6932	-6956	-6912	-6920	6800	6816	6784	6848	6828
628	96	656	0	18	315	1	100	0	0	0	-186	-183	-180	-175	-168	-166	-166	-167	-163	-154	-142	-133	-127	-125	-128	-134	-142	-149	-156	-159	-162	-165	-168	-168	-168	-167	-164	-161	-159	-158	-157	-160	-164	-166	-164	-159	-149	-129	-92	-33	52	162	273	326	255	39	-296	-678	-1012	-1227	656	639	621	602	582	-8388	-8348	-8356	-8340	-8376	-6924	-6920	-6944	-6928	-6944	6868	6820	6840	6812	6824
629	96	656	0	18	315	1	100	0	0	0	-1278	-1169	-945	-676	-435	-260	-145	-71	-23	8	29	44	55	65	73	79	83	87	93	100	107	114	121	127	134	142	149	158	168	179	192	207	222	236	250	267	284	302	321	342	362	382	398	411	419	423	425	423	419	411	561	539	514	489	461	-8348	-8336	-8412	-8360	-8376	-6908	-6984	-6924	-6936	-6976	6852	6764	6880	6788	6824
630	94	680	0	18	315	1	100	0	0	1	401	386	367	345	319	292	263	231	199	167	136	106	75	46	19	-5	-22	-35	-45	-52	-57	-60	-62	-62	-62	-62	-59	-54	-49	-45	-42	-38	-32	-25	-19	-12	-7	-3	1	3	4	5	6	9	11	12	13	14	14	11	433	403	373	343	312	-8392	-8380	-8344	-8340	-8400	-6952	-6968	-6960	-6952	-6972	6892	6796	6788	6936	6824
631	94	680	0	18	315	1	100	0	0	0	10	10	11	14	16	17	16	16	17	18	18	18	19	21	24	25	25	27	29	32	34	34	34	38	43	48	55	59	59	58	59	66	78	92	103	106	104	99	94	87	79	74	73	72	73	74	73	71	71	73	282	252	223	195	168	-8364	-8336	-8332	-8388	-8376	-6936	-6924	-6940	-6932	-6952	6856	6864	6820	6848	6828
632	94	680	0	18	315	1	100	0	0	0	73	73	76	80	82	86	91	93	97	106	128	168	232	325	437	531	541	417	156	-198	-566	-859	-1012	-996	-835	-586	-324	-113	33	130	192	230	255	270	281	290	299	307	317	325	334	341	345	347	349	354	361	367	372	377	140	113	86	59	31	-8380	-8360	-8352	-8412	-8384	-6900	-6924	-6928	-6876	-6900	6824	6828	6812	6904	6884
633	94	688	0	18	315	1	100	0	0	1	393	405	418	433	449	464	479	495	514	533	552	569	586	601	614	624	633	639	641	638	630	619	604	586	567	543	516	489	461	432	402	370	337	305	277	253	233	213	196	184	175	170	170	171	172	171	172	172	174	178	4	-23	-49	-75	-98	-8400	-8364	-8420	-8356	-8372	-6932	-6980	-6940	-6936	-6948	6824	6836	6868	6820	6900
634	94	688	0	18	315	1	100	0	0	0	183	189	196	203	207	209	210	214	220	227	232	234	235	238	241	242	242	240	238	238	238	236	232	230	232	233	232	232	232	232	232	233	233	232	231	231	230	228	228	227	226	225	226	228	229	229	227	226	223	221	-120	-141	-161	-181	-199	-8352	-8400	-8368	-8352	-8376	-6928	-6968	-6916	-6924	-6924	6816	6804	6820	6832	6808
635	94	688	0	18	315	1	100	0	0	0	222	224	228	232	235	233	228	227	232	240	249	260	268	270	268	262	253	243	238	237	234	229	226	222	220	220	221	220	218	218	219	218	215	215	217	220	224	236	261	305	372	465	572	646	625	481	222	-116	-458	-728	-217	-234	-252	-269	-286	-8340	-8380	-8360	-8396	-8396	-6924	-6964	-6916	-6924	-6908	6820	6828	6828	6840	6772
636	94	688	0	18	315	1	100	0	0	0	-858	-822	-652	-407	-164	22	146	226	274	302	321	337	344	346	350	355	361	366	369	371	372	373	376	382	388	395	401	407	412	416	420	427	438	450	461	472	486	502	520	537	554	569	583	595	604	608	609	608	603	595	-304	-321	-339	-355	-371	-8404	-8340	-8364	-8400	-8348	-6916	-6920	-6900	-6924	-6924	6832	6832	6888	6848	6820
637	94	716	0	18	315	1	100	0	0	1	584	569	553	535	515	492	465	435	402	369	335	301	270	242	216	194	174	156	142	130	120	113	108	105	104	106	109	111	115	119	124	130	133	135	139	144	149	153	158	162	164	167	167	167	170	172	174	175	176	178	-385	-397	-405	-410	-413	-8384	-8380	-8376	-8356	-8376	-6940	-6880	-6916	-6912	-6932	6856	6848	6848	6860	6812
638	94	716	0	18	315	1	100	0	0	0	180	180	179	177	173	171	172	173	174	176	176	174	173	172	172	174	175	175	173	172	172	175	178	180	179	178	179	184	191	200	207	210	206	198	189	180	173	168	163	157	151	146	140	136	134	133	133	132	131	130	-414	-413	-411	-407	-404	-8380	-8320	-8356	-8388	-8352	-6916	-6920	-6908	-6920	-6960	6824	6848	6840	6796	6804
639	94	716	0	18	315	1	100	0	0	0	131	132	131	131	132	137	151	179	223	290	385	494	579	568	429	176	-158	-503	-785	-937	-923	-766	-527	-281	-88	43	131	188	221	242	259	272	281	288	295	299	300	302	307	314	320	322	324	327	329	332	337	343	351	358	-400	-397	-395	-393	-393	-8384	-8340	-8356	-8404	-8368	-6928	-6916	-6900	-6908	-6896	6804	6776	6784	6896	6828
640	91	676	0	18	315	1	100	0	0	1	365	372	380	388	397	408	422	439	458	475	491	504	513	522	529	532	529	522	509	494	478	459	436	409	379	347	313	279	246	214	182	151	121	95	75	59	44	32	21	14	10	8	9	12	15	17	18	20	22	25	-394	-396	-398	-400	-401	-8376	-8384	-8408	-8380	-8356	-6948	-6952	-6956	-6924	-6908	6816	6804	6808	6848	7012
641	91	676	0	18	315	1	100	0	0	0	31	34	33	33	33	34	39	45	46	45	43	43	46	47	47	46	46	48	52	54	53	50	47	45	42	41	43	48	54	59	60	59	58	58	59	59	60	61	61	61	63	66	67	69	72	76	81	87	89	86	-402	-402	-402	-401	-400	-8368	-8376	-8404	-8380	-8348	-6912	-6948	-6940	-6916	-6904	6876	6840	6832	6812	6804
642	91	676	0	18	315	1	100	0	0	0	82	83	88	97	105	109	106	99	93	88	82	75	70	68	66	64	58	51	48	46	46	44	40	36	34	35	37	40	44	48	57	79	124	196	298	414	494	475	318	32	-331	-687	-955	-1081	-1043	-866	-614	-362	-166	-34	-398	-394	-389	-383	-377	-8364	-8380	-8384	-8360	-8352	-6944	-6952	-6936	-6944	-6912	6808	6832	6788	6792	6828
643	91	700	0	18	315	1	100	0	0	1	50	103	138	160	174	184	191	195	198	200	202	204	207	211	215	219	223	226	228	232	237	243	250	260	273	287	300	312	323	334	351	370	390	408	424	439	451	460	466	467	464	457	447	435	419	399	377	353	328	302	-371	-365	-361	-358	-355	-8364	-8348	-8392	-8340	-8404	-6916	-6952	-6904	-6928	-6956	6872	6816	6868	6840	6860
644	91	700	0	18	315	1	100	0	0	0	272	237	198	160	124	93	66	42	20	0	-18	-32	-43	-51	-57	-61	-62	-62	-60	-60	-60	-59	-55	-52	-49	-45	-42	-38	-35	-32	-29	-22	-15	-12	-12	-12	-13	-12	-11	-12	-14	-15	-16	-18	-18	-19	-19	-19	-20	-20	-353	-351	-348	-344	-340	-8376	-8400	-8336	-8356	-8380	-6900	-6944	-6924	-6916	-6956	6864	6836	6864	6884	6840
645	91	700	0	18	315	1	100	0	0	0	-22	-24	-24	-23	-21	-20	-20	-20	-20	-19	-18	-18	-19	-19	-19	-20	-21	-19	-14	-9	-6	-2	1	2	2	3	7	16	26	33	33	31	28	24	17	9	4	1	0	-1	-3	-5	-7	-8	-10	-12	-13	-11	-7	-4	-335	-329	-322	-314	-306	-8400	-8364	-8372	-8368	-8388	-6920	-6932	-6944	-6936	-6924	6820	6804	6844	6820	6816
646	91	700	0	18	315	1	100	0	0	0	-4	-4	-5	-5	0	18	56	116	206	319	419	447	348	111	-228	-595	-903	-1085	-1104	-971	-736	-475	-257	-105	-7	55	96	121	137	147	155	163	169	171	174	178	181	185	189	191	191	192	195	200	207	216	225	232	238	247	-298	-291	-284	-278	-273	-8388	-8356	-8364	-8344	-8356	-6908	-6932	-6908	-6940	-6928	6840	6816	6832	6844	6836
647	91	700	0	18	315	1	100	0	0	1	258	272	287	301	317	335	355	373	390	406	419	431	441	445	444	438	428	417	406	390	371	347	320	291	259	225	189	154	119	84	52	25	3	-15	-31	-45	-56	-64	-70	-76	-79	-80	-82	-83	-83	-80	-76	-72	-69	-66	-269	-266	-262	-258	-254	-8400	-8340	-8424	-8360	-8380	-6932	-6952	-6944	-6896	-6896	6808	6812	6832	6844	6808
648	91	700	0	18	315	1	100	0	0	0	-58	-53	-49	-44	-39	-35	-33	-30	-27	-23	-21	-19	-17	-14	-10	-6	-2	0	2	2	3	8	13	15	17	16	15	17	20	22	25	28	28	27	29	31	35	38	39	39	41	46	54	63	73	80	81	77	70	62	-241	-232	-222	-211	-200	-8412	-8420	-8360	-8256	-8332	-6860	-6920	-6900	-6984	-7032	6840	6760	6776	6920	6932
649	91	700	0	18	315	1	100	0	0	0	55	51	48	47	44	39	32	26	23	23	23	24	24	23	22	21	20	20	21	24	34	56	97	161	251	361	458	473	362	133	-190	-546	-856	-1046	-1070	-942	-717	-469	-263	-117	-18	47	83	106	124	137	142	144	149	157	-188	-177	-166	-155	-143	-8384	-8412	-8452	-8408	-8420	-6948	-6932	-6920	-6856	-6832	6912	6876	6860	6956	6860
650	90	668	0	18	315	1	100	0	0	1	163	166	167	170	173	177	181	183	183	183	184	187	189	195	203	211	221	231	241	254	267	281	297	316	333	349	361	368	372	373	371	364	355	344	329	309	283	256	225	191	158	126	91	54	18	-16	-48	-74	-95	-112	-129	-115	-101	-85	-70	-8368	-8384	-8408	-8340	-8408	-6896	-6944	-6964	-6860	-6868	6772	6792	6772	6816	6732
651	90	668	0	14	315	1	100	0	0	0	-128	-143	-156	-167	-177	-183	-188	-192	-194	-194	-193	-192	-192	-192	-191	-190	-189	-188	-187	-187	-187	-186	-185	-184	-183	-184	-184	-183	-181	-178	-175	-174	-173	-172	-172	-175	-178	-182	-186	-186	-186	-189	-193	-195	-195	-195	-193	-194	-198	-200	-54	-39	-26	-17	-12	-8432	-8444	-8412	-8404	-8396	-6936	-6876	-6972	-6904	-6868	6940	6892	6892	6888	6908
652	90	668	0	14	315	1	100	0	0	0	-200	-201	-202	-205	-207	-204	-201	-201	-204	-206	-205	-198	-189	-182	-181	-186	-194	-202	-209	-214	-218	-221	-224	-227	-232	-237	-242	-245	-245	-245	-246	-250	-254	-258	-254	-231	-197	-167	-143	-121	-88	-30	61	175	280	311	214	-26	-382	-773	-14	-22	-37	-59	-88	-8396	-8340	-8384	-8348	-8408	-6956	-6980	-7008	-6968	-6932	6880	6836	6904	6960	6948
653	90	668	0	14	315	1	100	0	0	0	-1105	-1307	-1339	-1212	-977	-712	-485	-322	-214	-146	-106	-82	-67	-57	-51	-47	-47	-50	-52	-50	-48	-47	-45	-44	-43	-40	-38	-38	-38	-33	-26	-18	-13	-8	0	10	23	39	57	76	94	112	128	143	157	168	177	180	180	175	-124	-167	-215	-266	-317	-8436	-8436	-8436	-8376	-8392	-6920	-6888	-6984	-7012	-7044	6888	6936	6948	6916	6948
654	90	672	0	14	315	1	100	0	0	1	165	153	139	124	104	80	52	19	-17	-52	-89	-127	-163	-200	-236	-266	-292	-315	-334	-350	-363	-372	-381	-389	-394	-397	-399	-401	-405	-409	-412	-412	-411	-409	-407	-406	-404	-403	-405	-405	-405	-403	-399	-397	-398	-399	-402	-405	-409	-411	-365	-408	-445	-475	-497	-8352	-8360	-8416	-8400	-8456	-6956	-7016	-6912	-6896	-6888	6940	6964	6996	6924	7000
655	90	672	0	14	315	1	100	0	0	0	-412	-414	-416	-419	-422	-423	-423	-426	-429	-431	-432	-433	-433	-435	-438	-439	-441	-441	-440	-434	-428	-424	-422	-422	-424	-425	-420	-412	-402	-394	-390	-391	-397	-402	-407	-412	-415	-417	-419	-421	-424	-426	-423	-421	-420	-419	-418	-417	-414	-409	-513	-522	-527	-526	-524	-8444	-8476	-8392	-8324	-8296	-6932	-6972	-7000	-6980	-6952	6900	6892	6860	6872	6904
656	90	672	0	14	315	1	100	0	0	0	-406	-404	-402	-397	-389	-372	-336	-278	-195	-86	21	68	-6	-213	-533	-908	-1253	-1485	-1548	-1443	-1218	-948	-708	-535	-418	-340	-291	-261	-240	-226	-218	-212	-205	-197	-190	-186	-184	-181	-177	-174	-171	-167	-162	-154	-144	-134	-124	-114	-103	-91	-520	-515	-509	-503	-495	-8328	-8380	-8380	-8360	-8340	-6980	-6968	-6980	-7024	-7028	6888	6956	6896	6956	6896
657	90	668	0	14	315	1	100	0	0	1	-77	-63	-48	-31	-13	6	28	49	69	89	105	117	125	130	133	135	137	133	124	109	92	71	47	18	-14	-47	-81	-114	-146	-179	-211	-241	-265	-286	-303	-315	-325	-333	-338	-341	-344	-345	-346	-344	-342	-338	-331	-324	-317	-311	-486	-473	-456	-434	-405	-8308	-8324	-8376	-8384	-8336	-7044	-7004	-6940	-6924	-6932	6960	6960	6876	6840	6888
658	90	668	0	14	315	1	100	0	0	0	-307	-304	-299	-289	-279	-271	-265	-260	-253	-246	-240	-235	-232	-229	-226	-223	-220	-215	-212	-208	-206	-204	-202	-200	-198	-196	-193	-190	-185	-180	-177	-174	-168	-161	-157	-154	-152	-146	-133	-119	-109	-107	-111	-117	-121	-124	-128	-131	-134	-138	-370	-328	-280	-228	-173	-8336	-8320	-8356	-8328	-8272	-7024	-7016	-7016	-6896	-6900	6848	6864	6832	6832	6872
659	90	668	0	14	315	1	100	0	0	0	-141	-144	-145	-143	-140	-138	-138	-136	-134	-132	-131	-129	-127	-122	-115	-106	-89	-53	2	84	192	312	401	386	239	-16	-350	-701	-989	-1147	-1142	-995	-764	-523	-324	-179	-79	-14	21	42	62	75	79	82	91	101	104	104	107	112	-117	-62	-11	35	74	-8288	-8288	-8372	-8376	-8412	-6992	-6976	-6996	-7060	-7032	6960	6892	7068	6944	6960
660	89	644	0	14	315	1	100	0	0	1	119	127	133	136	138	140	145	151	159	166	175	186	197	209	223	239	257	276	295	313	331	347	362	374	379	379	376	372	367	358	345	330	310	286	259	229	199	167	133	98	66	36	11	-12	-32	-49	-62	-70	-75	-78	106	130	146	153	150	-8332	-8288	-8324	-8388	-8452	-7000	-6984	-6952	-6996	-6908	6992	6924	6964	6868	6868
661	89	644	0	13	315	1	100	0	0	0	-81	-82	-81	-79	-77	-74	-70	-66	-63	-60	-56	-52	-46	-40	-34	-28	-22	-16	-11	-7	-3	3	9	16	23	26	28	29	29	31	35	38	42	46	49	51	52	54	56	55	53	55	60	66	71	76	81	84	84	85	140	124	105	83	59	-8436	-8312	-8332	-8348	-8436	-7056	-7032	-7108	-6944	-6836	6876	6924	6920	6960	6908
662	89	644	0	13	315	1	100	0	0	0	92	105	119	131	136	133	128	122	117	112	109	106	103	99	98	98	100	102	103	106	108	110	111	113	115	117	120	123	132	154	198	265	359	478	590	631	542	310	-40	-434	-777	-991	-1031	-906	-667	-388	-140	47	176	259	33	4	-27	-60	-93	-8372	-8332	-8316	-8372	-8364	-6908	-6952	-7060	-7108	-6992	6964	6900	6924	7040	7028
663	89	652	0	13	315	1	100	0	0	1	332	346	356	365	372	377	380	382	383	387	392	395	395	395	398	403	406	410	414	420	427	435	444	453	465	478	492	507	524	543	561	580	596	610	621	627	628	626	622	615	604	590	575	557	534	507	477	445	410	373	-129	-166	-204	-242	-278	-8408	-8468	-8432	-8328	-8356	-6960	-6884	-6944	-7016	-7008	7052	6924	6904	6928	6928
664	89	652	0	13	315	1	100	0	0	0	336	299	264	231	200	173	151	133	120	109	99	90	84	81	79	80	81	82	82	85	89	91	93	96	99	102	104	107	108	109	113	118	122	122	121	121	123	127	129	129	129	129	130	132	133	133	134	134	133	134	-313	-346	-378	-407	-435	-8360	-8368	-8380	-8360	-8360	-6996	-6992	-6988	-6976	-6960	6928	6868	6956	7000	7008
665	89	652	0	13	315	1	100	0	0	0	133	132	129	125	121	121	123	126	130	132	133	133	134	140	150	162	169	169	163	155	148	140	132	126	123	121	121	118	117	118	118	116	115	114	114	116	116	114	114	115	118	122	137	172	230	316	429	537	580	500	-460	-483	-505	-526	-548	-8344	-8380	-8412	-8380	-8380	-6980	-6992	-6992	-6976	-6996	7000	6960	6956	6932	6884
666	89	652	0	13	315	1	100	0	0	0	281	-57	-446	-792	-1013	-1062	-942	-704	-429	-193	-25	86	157	201	229	247	260	269	276	281	286	291	296	300	304	305	307	312	317	319	321	325	331	339	347	354	363	371	381	393	406	419	433	447	464	480	495	508	516	522	-569	-590	-610	-629	-647	-8368	-8316	-8328	-8364	-8420	-7016	-6996	-6952	-6988	-7016	6920	6880	6940	6944	6952
667	89	656	0	13	315	1	100	0	0	1	525	524	522	516	507	495	481	462	438	410	377	343	309	274	237	201	167	134	103	73	46	24	5	-9	-20	-30	-37	-42	-46	-49	-52	-53	-51	-49	-45	-43	-44	-44	-43	-42	-40	-38	-37	-36	-36	-37	-39	-40	-41	-40	-662	-673	-681	-684	-683	-8376	-8384	-8384	-8348	-8372	-6940	-6956	-6956	-6960	-7024	6936	6916	6984	6900	6852
668	89	656	0	13	315	1	100	0	0	0	-39	-39	-41	-43	-44	-44	-45	-47	-49	-53	-58	-62	-65	-68	-70	-70	-71	-73	-76	-78	-79	-81	-82	-83	-84	-81	-76	-72	-72	-77	-88	-99	-109	-120	-129	-135	-142	-146	-150	-156	-162	-167	-171	-174	-176	-177	-178	-181	-185	-189	-679	-670	-656	-638	-615	-8388	-8340	-8336	-8364	-8376	-6940	-6984	-6952	-6996	-6968	6884	6872	6920	6848	6896
669	89	656	0	13	315	1	100	0	0	0	-195	-198	-198	-191	-166	-118	-46	54	166	246	228	85	-168	-502	-856	-1152	-1318	-1320	-1178	-951	-715	-524	-391	-300	-242	-213	-196	-180	-170	-168	-167	-164	-162	-161	-162	-163	-163	-163	-165	-166	-164	-163	-162	-159	-157	-156	-153	-150	-145	-138	-589	-560	-530	-498	-465	-8332	-8368	-8388	-8320	-8372	-6972	-6984	-6940	-6956	-6964	6896	6840	6808	6896	6900
670	89	644	0	13	315	1	100	0	0	1	-121	-109	-96	-81	-64	-47	-31	-19	-11	-3	3	6	4	-1	-10	-22	-37	-55	-76	-100	-125	-152	-183	-215	-249	-284	-319	-352	-382	-409	-432	-451	-466	-479	-487	-494	-499	-502	-504	-505	-505	-503	-501	-498	-496	-491	-484	-477	-472	-468	-431	-394	-356	-316	-274	-8388	-8356	-8360	-8396	-8340	-7000	-6972	-6932	-6972	-7000	6888	6916	6936	6792	6892
671	89	644	0	14	315	1	100	0	0	0	-462	-454	-448	-442	-437	-432	-426	-420	-415	-412	-410	-407	-404	-401	-399	-397	-395	-393	-390	-386	-384	-384	-385	-386	-386	-385	-383	-380	-377	-375	-373	-368	-364	-361	-361	-359	-354	-344	-332	-322	-317	-319	-324	-329	-335	-338	-338	-337	-339	-343	-231	-187	-144	-101	-59	-8372	-8336	-8348	-8356	-8348	-7024	-7012	-6964	-6952	-7000	6916	6824	6884	6904	6908
672	89	644	0	14	316	1	100	0	0	0	-345	-344	-342	-340	-339	-339	-337	-334	-331	-328	-324	-321	-320	-320	-315	-298	-262	-205	-122	-9	112	178	122	-74	-385	-755	-1102	-1353	-1455	-1392	-1195	-932	-680	-487	-353	-264	-206	-170	-145	-128	-117	-109	-99	-89	-83	-79	-73	-65	-58	-54	-19	20	56	90	121	-8348	-8344	-8352	-8416	-8332	-6980	-6984	-6980	-6928	-7024	6888	6916	6864	6836	6824
673	89	652	0	14	316	1	100	0	0	1	-52	-48	-44	-40	-35	-29	-20	-9	2	15	30	45	60	76	92	109	127	144	161	178	196	211	223	230	231	230	226	217	203	188	174	156	133	105	73	39	7	-25	-56	-88	-117	-145	-169	-189	-205	-218	-228	-236	-242	-244	149	175	198	220	241	-8360	-8368	-8364	-8340	-8376	-6908	-6984	-7032	-6964	-7000	6928	6904	6940	6904	6880
674	89	652	0	14	316	1	100	0	0	0	-243	-240	-237	-234	-231	-229	-226	-220	-214	-206	-199	-194	-191	-187	-181	-173	-166	-162	-158	-155	-151	-147	-142	-136	-130	-126	-122	-122	-123	-122	-121	-121	-119	-117	-115	-114	-114	-113	-110	-109	-109	-111	-110	-109	-107	-106	-107	-108	-105	-99	262	282	303	324	344	-8344	-8356	-8340	-8404	-8376	-6980	-6964	-6964	-6944	-6952	6912	6852	6864	6904	6916
675	89	652	0	14	316	1	100	0	0	0	-95	-90	-84	-80	-78	-78	-75	-68	-56	-42	-32	-30	-33	-41	-52	-60	-64	-64	-62	-63	-65	-68	-69	-69	-70	-70	-69	-67	-64	-61	-58	-57	-58	-60	-60	-53	-30	15	85	185	305	408	429	314	59	-302	-685	-1001	-1184	-1198	364	383	399	411	420	-8340	-8340	-8340	-8388	-8372	-7000	-7012	-6996	-6960	-6976	6896	6948	6912	6924	6892
676	89	652	0	14	316	1	100	0	0	0	-1061	-823	-554	-325	-163	-57	11	53	81	101	114	123	132	139	144	148	152	158	164	169	173	179	185	191	197	202	207	213	220	226	235	247	261	275	289	306	324	342	363	382	399	414	425	432	436	436	433	426	416	404	426	428	427	424	420	-8372	-8304	-8356	-8412	-8384	-6968	-6996	-6992	-6972	-6996	6824	6888	6928	6896	6876
677	89	684	0	14	316	1	100	0	0	1	372	350	325	299	269	236	201	164	128	93	61	33	7	-16	-35	-49	-59	-66	-71	-76	-81	-83	-83	-83	-80	-75	-70	-66	-61	-57	-54	-49	-43	-40	-36	-31	-26	-21	-16	-10	-5	-2	0	1	2	5	6	5	4	4	417	413	411	409	408	-8336	-8336	-8364	-8372	-8348	-6988	-6988	-7004	-7008	-6996	6904	6936	6872	6884	6880
678	89	684	0	14	316	1	100	0	0	0	5	8	10	11	11	11	12	11	10	9	9	9	9	10	12	14	16	20	22	22	22	20	22	27	34	38	43	45	46	45	46	51	62	76	87	88	82	74	67	62	57	53	49	45	42	41	40	38	36	35	407	405	404	401	398	-8388	-8364	-8360	-8348	-8340	-6988	-6988	-7004	-7004	-7008	6884	6868	6880	6908	6860
679	89	684	0	14	316	1	100	0	0	0	35	36	36	36	37	38	40	43	46	55	79	120	182	272	383	486	513	411	179	-154	-519	-835	-1028	-1055	-929	-702	-442	-219	-61	45	115	155	180	199	217	227	234	241	247	249	251	254	260	264	267	272	277	281	285	290	392	385	377	367	357	-8352	-8364	-8348	-8308	-8340	-6972	-6972	-6980	-7040	-6988	6896	6884	6916	6856	6892
680	90	700	0	14	316	1	100	0	0	1	296	304	313	323	333	342	354	370	387	405	422	438	453	469	486	500	511	518	524	526	523	516	507	493	478	461	442	417	389	358	327	294	259	224	190	157	127	99	75	55	41	30	21	13	7	3	2	-1	-5	-7	345	333	322	311	301	-8352	-8348	-8344	-8316	-8328	-6972	-7016	-6960	-6960	-6996	6852	6848	6860	6868	6824
681	90	700	0	14	316	1	100	0	0	0	-8	-5	0	6	11	15	19	25	31	37	41	45	50	54	58	62	64	66	69	74	77	78	79	79	80	83	83	82	80	76	75	75	76	76	75	75	75	75	76	78	79	78	76	76	79	84	89	92	92	90	292	284	278	273	270	-8320	-8352	-8328	-8360	-8336	-6984	-7012	-6952	-6964	-6980	6872	6868	6868	6860	6864
682	90	700	0	14	316	1	100	0	0	0	89	91	97	108	119	126	125	119	112	105	98	94	92	89	85	80	75	71	70	71	73	75	77	79	78	78	77	76	77	81	92	115	153	210	293	401	508	550	470	269	-30	-374	-693	-918	-993	-913	-718	-478	-259	-95	269	268	267	266	263	-8332	-8344	-8324	-8356	-8344	-6996	-6960	-6940	-6960	-6972	6860	6832	6872	6864	6828
683	90	684	0	14	316	1	100	0	0	1	17	94	139	165	186	203	212	215	221	230	237	238	240	244	248	252	256	259	262	263	264	267	273	280	287	295	304	314	327	344	361	377	392	406	422	439	455	468	478	483	484	482	477	469	460	447	427	404	378	350	259	253	247	240	234	-8372	-8300	-8360	-8368	-8360	-6988	-6996	-6972	-7000	-6980	6708	6840	6884	6864	6924
684	90	684	0	14	316	1	100	0	0	0	320	288	253	217	181	147	116	89	64	44	29	17	7	-2	-10	-16	-18	-16	-13	-12	-13	-12	-10	-8	-4	1	5	10	15	21	25	30	36	41	45	48	51	54	56	58	60	58	57	59	62	66	70	73	74	74	228	225	221	219	216	-8320	-8324	-8336	-8412	-8372	-6920	-6968	-6964	-6996	-6984	6848	6848	6908	6852	6892
685	90	684	0	14	316	1	100	0	0	0	72	70	69	68	68	69	70	73	73	72	71	70	70	71	74	77	77	77	79	79	79	79	76	75	77	80	83	87	91	93	90	87	87	94	104	113	119	119	115	111	107	102	96	90	84	80	76	73	71	69	214	210	204	197	186	-8384	-8332	-8344	-8348	-8336	-6964	-7000	-6988	-7032	-7008	6884	6800	6848	6864	6828
686	90	684	0	14	316	1	100	0	0	0	68	68	68	69	71	73	74	74	73	72	73	81	104	149	222	326	451	554	557	411	122	-258	-640	-942	-1108	-1111	-966	-720	-447	-218	-58	46	111	153	177	191	201	209	218	224	227	229	231	234	236	238	239	241	246	252	172	156	137	117	95	-8344	-8324	-8348	-8376	-8296	-6988	-6984	-7008	-6948	-6980	6896	6868	6752	6916	6940
687	90	724	0	14	316	1	100	0	0	1	258	265	272	279	287	297	307	317	329	342	355	368	382	398	417	434	449	462	471	477	481	481	478	473	464	453	436	416	393	366	336	304	270	234	198	163	128	95	65	40	21	5	-9	-22	-34	-44	-52	-57	-59	-57	73	49	25	2	-20	-8344	-8320	-8356	-8348	-8376	-7008	-7028	-7004	-6980	-6980	6860	6820	6784	6844	6872
688	90	724	0	14	316	1	100	0	0	0	-55	-55	-55	-54	-51	-46	-41	-36	-33	-28	-23	-19	-15	-11	-6	-1	2	3	4	5	8	11	13	15	17	19	19	17	14	14	16	16	15	13	10	8	7	9	11	14	16	16	14	12	12	13	14	16	16	17	-41	-59	-75	-90	-103	-8332	-8352	-8356	-8336	-8336	-6992	-7000	-7012	-6996	-6988	6832	6896	6852	6908	6920
689	90	724	0	14	316	1	100	0	0	0	18	19	19	17	15	13	14	18	25	33	40	45	45	43	42	47	56	67	75	78	73	65	57	49	42	37	34	30	28	25	21	18	16	15	14	13	13	13	12	11	10	11	12	17	29	58	111	193	303	420	-116	-128	-139	-151	-163	-8344	-8368	-8340	-8340	-8336	-7020	-6984	-7004	-6980	-6976	6912	6936	6920	6924	6912
690	90	724	0	14	316	1	100	0	0	0	488	440	252	-63	-444	-803	-1061	-1162	-1095	-894	-626	-372	-180	-50	33	86	121	142	154	161	168	175	181	186	191	196	199	201	204	206	207	209	212	214	221	230	240	249	258	268	277	288	300	314	329	348	367	386	403	418	-176	-190	-205	-221	-235	-8348	-8328	-8400	-8420	-8396	-6952	-6960	-6992	-6900	-6988	6880	6924	6836	6944	6900
691	90	732	0	14	316	1	100	0	0	1	430	439	445	448	448	444	436	423	406	387	368	345	319	289	257	223	188	152	116	82	52	24	-2	-25	-45	-60	-70	-77	-82	-84	-87	-88	-86	-83	-81	-80	-80	-79	-76	-71	-66	-60	-54	-47	-41	-38	-36	-35	-32	-25	-249	-260	-270	-278	-284	-8364	-8400	-8332	-8348	-8324	-7076	-7032	-6976	-6968	-7008	6896	6976	7024	7024	6956
692	90	732	0	14	316	1	100	0	0	0	-14	-14	-15	-15	-14	-12	-11	-9	-7	-6	-6	-6	-6	-5	-2	-1	-4	-6	-8	-10	-10	-8	-7	-8	-9	-8	-7	-7	-8	-11	-13	-12	-11	-10	-9	-10	-10	-9	-8	-4	1	1	-3	-4	0	10	23	32	33	30	-287	-287	-284	-278	-267	-8348	-8400	-8340	-8404	-8364	-7028	-7024	-7020	-6940	-6904	6940	6940	6876	6836	6888
693	90	732	0	14	316	1	100	0	0	0	25	18	9	1	-5	-10	-12	-15	-16	-17	-18	-19	-19	-19	-19	-18	-15	-13	-11	-8	-5	-3	1	14	43	93	169	272	381	446	409	252	-15	-357	-703	-972	-1095	-1049	-868	-621	-383	-200	-74	8	56	82	103	121	131	136	-253	-238	-221	-203	-186	-8356	-8408	-8356	-8336	-8336	-6960	-7016	-6988	-6972	-6984	6876	6912	6912	6924	6968
694	90	720	0	14	316	1	100	0	0	1	140	146	153	158	162	166	169	173	176	180	184	186	190	196	204	212	219	226	235	245	255	265	276	289	305	323	341	359	374	387	396	403	405	404	400	392	380	365	350	334	314	290	263	234	203	171	137	101	66	34	-170	-156	-142	-127	-110	-8336	-8372	-8408	-8400	-8352	-6968	-6976	-6976	-6984	-6988	6936	6928	6916	6872	6936
695	90	720	0	14	316	1	100	0	0	0	5	-20	-40	-56	-71	-84	-94	-101	-105	-107	-109	-110	-110	-109	-108	-106	-104	-102	-99	-96	-92	-88	-84	-78	-74	-73	-73	-73	-72	-68	-64	-63	-62	-62	-62	-60	-58	-56	-54	-53	-53	-54	-56	-56	-56	-57	-60	-64	-68	-69	-90	-66	-38	-8	23	-8360	-8400	-8340	-8340	-8320	-6964	-6960	-6940	-6980	-6996	6892	6920	6864	6932	6976
696	90	720	0	14	316	1	100	0	0	0	-68	-66	-65	-64	-61	-57	-53	-53	-57	-59	-57	-51	-43	-38	-39	-44	-50	-57	-65	-73	-80	-84	-89	-94	-98	-100	-103	-105	-106	-110	-114	-118	-122	-125	-125	-125	-127	-129	-127	-114	-83	-33	43	148	266	344	312	149	-121	-463	53	82	107	127	143	-8324	-8380	-8332	-8292	-8280	-6988	-7000	-7012	-7044	-7028	6948	6892	6896	6896	6844
697	90	720	0	14	316	1	100	0	0	0	-811	-1093	-1242	-1227	-1074	-840	-602	-412	-276	-183	-125	-96	-78	-63	-54	-52	-54	-54	-52	-51	-50	-49	-49	-49	-49	-49	-48	-49	-51	-51	-50	-50	-48	-42	-35	-27	-19	-11	-1	8	19	32	45	57	71	82	89	93	91	85	155	164	172	178	186	-8308	-8376	-8428	-8492	-8500	-7004	-7036	-6860	-6936	-6924	6880	6936	6888	6924	6924
698	90	664	0	14	316	1	100	0	0	1	78	69	57	41	21	-5	-33	-62	-93	-125	-160	-196	-230	-262	-291	-317	-342	-363	-377	-389	-399	-407	-416	-427	-437	-444	-446	-443	-438	-431	-428	-428	-427	-425	-422	-419	-415	-411	-406	-400	-394	-390	-388	-388	-386	-382	-378	-373	-369	-365	196	209	226	246	269	-8408	-8356	-8360	-8420	-8424	-6976	-7016	-7116	-6852	-6844	7024	6968	6844	6864	6832
699	90	664	0	14	316	1	100	0	0	0	-360	-356	-354	-354	-355	-356	-356	-354	-352	-350	-346	-343	-342	-341	-339	-336	-335	-335	-333	-330	-327	-323	-319	-317	-314	-310	-308	-301	-291	-280	-273	-274	-280	-291	-302	-312	-317	-318	-316	-315	-317	-321	-324	-327	-329	-332	-334	-335	-334	-331	294	316	333	342	343	-8296	-8204	-8312	-8404	-8352	-7036	-7036	-7144	-7128	-6992	6884	6904	6868	6920	6916
700	89	664	0	14	316	1	100	0	0	0	-327	-331	-330	-325	-318	-297	-252	-182	-88	27	129	151	44	-206	-565	-947	-1265	-1446	-1453	-1303	-1056	-788	-567	-414	-314	-251	-211	-187	-173	-160	-149	-142	-138	-135	-131	-127	-126	-125	-123	-120	-116	-109	-102	-98	-94	-89	-82	-73	-63	-54	335	316	288	252	211	-8260	-8320	-8440	-8360	-8336	-7040	-7032	-6976	-6940	-7004	6976	6964	7052	7064	6932
701	89	668	0	15	316	1	100	0	0	1	-44	-31	-15	1	17	33	50	69	90	110	129	143	152	159	162	161	155	147	135	121	104	82	54	22	-11	-44	-77	-111	-143	-173	-204	-232	-258	-279	-295	-304	-312	-317	-321	-324	-326	-326	-324	-322	-321	-318	-315	-311	-307	-303	169	131	103	85	78	-8392	-8496	-8508	-8196	-8240	-6968	-6932	-6928	-7080	-7068	6916	6848	6736	6804	6840
702	89	668	0	15	316	1	100	0	0	0	-298	-293	-287	-280	-273	-266	-260	-255	-250	-245	-238	-232	-230	-230	-229	-229	-226	-223	-219	-216	-209	-201	-196	-193	-192	-193	-192	-191	-190	-190	-191	-190	-187	-184	-181	-178	-174	-175	-177	-178	-174	-166	-153	-143	-140	-141	-143	-146	-150	-154	78	82	87	92	98	-8196	-8240	-8300	-8332	-8272	-7108	-7120	-6960	-7004	-7032	6836	6804	6864	6848	6900
703	89	668	0	15	316	1	100	0	0	0	-158	-161	-162	-163	-164	-166	-169	-169	-167	-163	-159	-157	-154	-151	-147	-143	-143	-142	-138	-126	-102	-60	6	101	218	320	345	240	3	-329	-687	-993	-1176	-1198	-1071	-846	-592	-377	-225	-123	-56	-15	9	27	41	51	57	63	69	74	107	120	139	164	193	-8284	-8268	-8280	-8324	-8316	-7028	-7080	-7028	-6976	-6976	6864	6872	6772	6860	6804
704	89	660	0	15	316	1	100	0	0	1	80	83	86	89	92	96	102	108	112	116	122	130	140	151	161	172	185	201	217	233	248	266	286	304	321	335	348	359	367	370	367	362	354	345	332	314	292	268	242	213	180	145	110	78	49	21	-5	-28	-49	-69	226	262	300	341	385	-8328	-8368	-8340	-8284	-8292	-6972	-6968	-7008	-6976	-6984	6800	6780	6796	6852	6852
705	89	660	0	15	316	1	100	0	0	0	-84	-94	-101	-104	-105	-107	-109	-109	-108	-107	-106	-103	-101	-95	-90	-87	-82	-75	-68	-63	-60	-58	-54	-48	-42	-37	-37	-37	-34	-31	-27	-23	-21	-19	-18	-16	-15	-15	-14	-14	-13	-10	-8	-7	-4	1	4	7	9	10	431	478	528	577	628	-8328	-8288	-8356	-8332	-8292	-7000	-6984	-6968	-6980	-6972	6748	6856	6800	6800	6804
706	89	660	0	15	316	1	100	0	0	0	15	22	30	36	38	34	28	23	18	12	8	4	2	1	0	-2	-3	-2	-1	0	0	-1	0	3	5	6	9	11	16	31	61	112	189	293	410	499	484	337	82	-247	-584	-857	-1005	-1002	-866	-644	-412	-223	-88	6	677	726	774	820	863	-8276	-8304	-8364	-8332	-8336	-6980	-6972	-6964	-6976	-6964	6816	6832	6800	6832	6908
707	89	636	0	15	316	1	100	0	0	1	103	127	147	162	169	174	182	190	192	193	198	204	208	210	212	214	217	224	231	238	245	253	261	269	279	290	303	320	339	358	372	384	398	413	429	442	451	455	454	450	442	429	415	399	382	359	332	303	271	239	903	939	970	997	1020	-8288	-8324	-8332	-8324	-8328	-6968	-6964	-6996	-7040	-7000	6820	6848	6788	6808	6812
708	89	636	0	15	316	1	100	0	0	0	206	174	142	110	82	58	37	21	9	-3	-12	-17	-19	-19	-20	-22	-23	-22	-18	-13	-8	-3	1	6	10	15	19	22	25	30	36	40	44	48	53	57	59	60	61	62	63	66	68	71	72	72	75	76	78	78	1038	1053	1064	1071	1075	-8308	-8312	-8320	-8304	-8296	-6996	-6984	-6964	-7016	-7024	6820	6792	6864	6788	6812
709	89	636	0	15	316	1	100	0	0	0	76	73	71	70	71	73	75	79	82	85	87	88	86	85	90	100	110	117	117	113	106	99	92	86	81	78	75	70	66	63	62	61	60	60	59	60	60	60	61	62	65	70	75	87	117	170	250	360	483	562	1075	1071	1065	1056	1043	-8336	-8304	-8316	-8296	-8332	-6984	-6972	-7016	-6988	-6992	6840	6800	6764	6816	6796
710	88	636	0	15	316	1	100	0	0	0	523	332	9	-379	-736	-988	-1088	-1030	-840	-581	-327	-131	2	89	146	183	206	220	228	234	238	241	244	247	250	253	257	259	260	261	261	263	268	275	283	289	297	308	319	332	344	357	373	390	406	422	439	455	471	484	1028	1009	986	961	934	-8308	-8312	-8320	-8320	-8300	-6996	-6984	-6992	-6976	-6988	6796	6780	6796	6844	6816
711	88	660	0	15	316	1	100	0	0	1	495	502	504	504	500	493	482	467	447	423	400	374	344	311	277	241	204	167	132	101	76	54	33	16	1	-9	-14	-18	-20	-21	-21	-20	-19	-18	-18	-17	-17	-15	-13	-10	-7	-3	1	3	6	9	12	17	20	22	906	877	847	817	786	-8332	-8324	-8312	-8272	-8316	-6992	-6964	-7012	-7008	-7008	6844	6824	6812	6916	6848
712	88	660	0	15	317	1	100	0	0	0	23	23	23	24	27	29	29	28	26	25	25	25	26	26	26	28	29	27	25	24	25	27	30	32	33	34	38	40	39	41	45	52	60	66	67	64	59	52	44	38	32	29	27	25	23	21	19	17	16	17	754	723	693	665	640	-8312	-8336	-8324	-8328	-8324	-7004	-6976	-6976	-7004	-7012	6792	6820	6808	6804	6828
713	88	660	0	15	317	1	100	0	0	0	19	22	22	22	21	21	22	24	26	37	67	121	202	309	423	494	456	276	-30	-402	-754	-1008	-1106	-1043	-854	-596	-346	-157	-31	52	105	138	160	174	183	189	195	198	199	202	207	211	213	214	219	223	225	228	231	236	616	595	574	553	532	-8292	-8300	-8268	-8300	-8344	-6988	-6988	-6976	-6976	-6968	6792	6788	6788	6788	6796
714	88	664	0	15	317	1	100	0	0	1	244	252	260	268	277	288	300	312	326	340	354	371	389	408	424	438	451	460	463	461	454	446	437	423	404	383	360	335	308	278	244	208	171	134	99	67	38	12	-10	-28	-42	-54	-61	-65	-67	-70	-73	-75	-77	-76	508	482	454	426	397	-8412	-8352	-8324	-8308	-8324	-6976	-7024	-7012	-6992	-6964	6756	6812	6796	6840	6860
715	88	664	0	15	317	1	100	0	0	0	-68	-63	-57	-54	-53	-52	-49	-44	-39	-36	-35	-33	-30	-28	-24	-20	-17	-13	-12	-13	-13	-13	-14	-15	-14	-14	-14	-15	-17	-18	-18	-17	-15	-15	-16	-16	-15	-12	-8	-3	0	0	-2	0	8	20	29	32	30	24	369	342	319	300	284	-8420	-8320	-8292	-8340	-8328	-7024	-7040	-6956	-6964	-7008	6796	6836	6808	6756	6804
716	88	664	0	15	317	1	100	0	0	0	17	11	4	-2	-7	-11	-15	-18	-21	-22	-21	-19	-16	-15	-16	-17	-16	-13	-8	-8	-10	-10	-5	14	53	113	198	305	416	477	421	238	-43	-380	-702	-939	-1035	-983	-815	-589	-372	-203	-85	-4	47	75	95	112	125	130	274	268	268	272	281	-8344	-8280	-8316	-8296	-8320	-6968	-6948	-6944	-6972	-6976	6780	6812	6792	6836	6872
717	88	660	0	15	317	1	100	0	0	1	137	145	149	150	149	152	156	160	163	166	169	172	175	179	186	192	197	205	214	225	238	252	264	278	293	308	323	338	352	363	374	384	388	387	382	374	363	349	333	311	286	261	234	205	173	142	111	81	51	24	293	307	322	337	352	-8272	-8308	-8296	-8324	-8288	-6976	-7008	-6992	-7028	-6988	6800	6848	6832	6760	6832
718	88	660	0	15	317	1	100	0	0	0	-3	-26	-44	-57	-67	-76	-82	-88	-92	-93	-92	-90	-89	-86	-82	-80	-78	-73	-68	-60	-53	-48	-45	-44	-43	-41	-39	-37	-33	-30	-28	-26	-23	-22	-21	-20	-19	-17	-16	-15	-15	-16	-17	-21	-26	-30	-33	-33	-33	-33	365	378	390	400	407	-8296	-8320	-8356	-8292	-8316	-6976	-7012	-6976	-6976	-6952	6784	6772	6840	6832	6796
719	88	660	0	15	317	1	100	0	0	0	-34	-36	-36	-34	-32	-28	-24	-21	-18	-18	-18	-15	-10	-1	7	8	4	-3	-10	-16	-19	-21	-22	-24	-26	-29	-32	-33	-33	-35	-34	-33	-29	-27	-28	-29	-29	-27	-25	-21	-6	24	75	150	253	371	454	429	258	-47	411	410	403	389	369	-8324	-8348	-8272	-8304	-8284	-6988	-7072	-7112	-7116	-7028	6836	6828	6856	6812	6784
720	88	660	0	15	317	1	100	0	0	0	-424	-783	-1043	-1150	-1095	-910	-657	-409	-216	-86	-2	51	84	105	119	129	136	143	149	153	156	159	161	163	165	171	178	183	188	193	198	204	211	218	224	232	242	253	267	281	297	313	329	346	363	380	395	405	412	415	341	306	266	220	170	-8316	-8372	-8320	-8312	-8280	-6996	-6920	-6988	-7020	-7036	6792	6908	6816	6864	6884
721	88	668	0	15	317	1	100	0	0	1	413	406	397	386	373	357	338	316	288	257	226	192	158	122	87	54	24	-1	-22	-42	-58	-69	-78	-86	-91	-94	-95	-94	-93	-94	-95	-94	-92	-88	-83	-78	-76	-73	-68	-63	-59	-56	-52	-46	-39	-33	-29	-28	-28	-26	117	63	11	-38	-81	-8312	-8316	-8380	-8324	-8248	-7032	-6976	-7024	-7044	-7080	6880	6908	6800	6788	6812
722	88	668	0	15	317	1	100	0	0	0	-21	-19	-19	-20	-21	-22	-25	-26	-27	-24	-22	-21	-22	-24	-26	-26	-26	-26	-25	-26	-28	-30	-30	-28	-24	-20	-17	-14	-11	-10	-12	-14	-11	-2	10	20	23	19	13	7	0	-7	-14	-17	-18	-19	-21	-25	-29	-32	-146	-167	-183	-193	-201	-8328	-8332	-8276	-8360	-8268	-7000	-7020	-7032	-7040	-7096	6804	6796	6880	6892	6884
723	88	668	0	15	317	1	100	0	0	0	-34	-36	-38	-38	-36	-33	-31	-30	-31	-30	-27	-16	11	57	130	233	351	436	416	253	-42	-411	-765	-1029	-1148	-1106	-931	-681	-429	-233	-100	-13	43	78	99	112	118	121	126	130	134	139	142	147	152	157	160	160	162	165	-206	-209	-211	-212	-212	-8304	-8320	-8356	-8332	-8280	-7016	-6952	-6996	-7028	-7036	6840	6872	6940	6852	6816
724	88	688	0	15	317	1	100	0	0	1	169	174	181	188	196	207	220	233	247	259	273	288	306	323	337	351	363	376	387	393	393	390	388	383	377	366	349	329	308	284	258	227	196	165	133	100	67	33	2	-25	-47	-65	-78	-88	-94	-99	-101	-101	-99	-96	-211	-209	-207	-204	-201	-8276	-8332	-8364	-8328	-8296	-7036	-7016	-6984	-7004	-7004	6848	6824	6868	6908	6756
725	88	688	0	15	317	1	100	0	0	0	-95	-94	-94	-92	-88	-82	-76	-72	-70	-68	-63	-59	-56	-52	-49	-47	-45	-42	-38	-35	-32	-30	-30	-31	-33	-35	-36	-34	-31	-28	-28	-29	-30	-28	-25	-24	-25	-27	-28	-29	-29	-30	-33	-35	-36	-34	-29	-25	-22	-22	-195	-188	-180	-170	-159	-8276	-8300	-8304	-8312	-8284	-7004	-7040	-7044	-7056	-7020	6860	6856	6828	6800	6800
726	88	688	0	15	317	1	100	0	0	0	-22	-24	-26	-24	-17	-6	4	12	13	9	3	-5	-13	-18	-22	-25	-29	-33	-37	-42	-46	-48	-49	-50	-49	-47	-45	-42	-39	-41	-42	-42	-37	-20	13	65	141	241	351	420	384	224	-40	-369	-695	-945	-1061	-1025	-867	-642	-148	-136	-123	-110	-95	-8292	-8268	-8248	-8276	-8268	-7024	-7012	-7044	-7052	-7024	6844	6860	6876	6816	6812
727	88	688	0	15	317	1	100	0	0	1	-423	-253	-135	-53	-2	26	45	59	66	69	72	76	79	80	82	86	89	90	91	91	93	98	102	107	112	116	120	126	133	141	151	163	176	188	201	216	232	248	263	275	283	289	292	292	287	280	269	256	240	221	-80	-65	-48	-29	-8	-8280	-8288	-8248	-8268	-8324	-7056	-7052	-7060	-7052	-6992	6744	6784	6900	6816	6880
728	88	688	0	15	317	1	100	0	0	0	199	174	148	118	87	55	23	-8	-39	-70	-100	-125	-145	-159	-172	-182	-190	-195	-199	-201	-203	-205	-204	-201	-196	-190	-186	-185	-183	-179	-175	-170	-166	-163	-161	-161	-159	-156	-153	-148	-143	-139	-137	-135	-136	-136	-136	-134	-133	-133	18	46	79	113	149	-8312	-8296	-8296	-8336	-8304	-6992	-6992	-7012	-6988	-6968	6868	6716	6784	6808	6740
729	88	688	0	15	317	1	100	0	0	0	-133	-133	-133	-132	-131	-132	-133	-133	-133	-134	-137	-139	-140	-140	-137	-133	-128	-122	-118	-117	-117	-115	-109	-102	-95	-94	-97	-103	-108	-114	-117	-119	-121	-123	-126	-129	-134	-138	-140	-139	-137	-134	-132	-132	-132	-132	-131	-130	-128	-122	185	219	252	282	310	-8368	-8352	-8304	-8316	-8324	-6960	-6964	-6980	-6940	-6972	6772	6804	6808	6844	6812
730	89	688	0	15	317	1	100	0	0	0	-106	-72	-16	68	180	299	371	321	117	-208	-587	-931	-1169	-1254	-1182	-987	-730	-486	-302	-179	-98	-45	-10	12	27	37	44	48	52	56	60	64	68	70	73	75	77	83	88	92	95	99	105	113	122	130	140	151	164	180	333	353	368	378	384	-8308	-8296	-8280	-8360	-8312	-6988	-7000	-7028	-6992	-7012	6800	6932	6772	6900	6788
731	89	672	0	15	317	1	100	0	0	1	198	215	230	245	260	275	286	295	301	303	300	295	288	278	265	250	229	205	178	148	116	84	52	20	-12	-45	-74	-99	-120	-137	-152	-164	-173	-179	-183	-186	-187	-189	-188	-187	-185	-182	-180	-175	-169	-165	-161	-157	-151	-144	386	385	383	380	376	-8344	-8320	-8332	-8316	-8320	-7008	-6996	-6932	-6988	-6972	6788	6856	6848	6780	6916
732	89	672	0	15	317	1	100	0	0	0	-138	-133	-129	-126	-123	-117	-111	-104	-99	-96	-96	-95	-92	-90	-89	-89	-89	-89	-88	-87	-87	-87	-88	-89	-87	-84	-84	-84	-85	-86	-85	-82	-81	-80	-79	-77	-73	-68	-59	-50	-47	-47	-46	-40	-29	-19	-13	-14	-17	-21	372	368	364	361	357	-8324	-8352	-8364	-8320	-8340	-6984	-6980	-6964	-6996	-6992	6820	6848	6860	6824	6848
733	89	672	0	15	317	1	100	0	0	0	-24	-28	-33	-38	-40	-44	-46	-48	-50	-51	-51	-52	-52	-53	-55	-56	-56	-55	-55	-54	-50	-44	-26	10	68	154	267	379	429	354	134	-199	-571	-895	-1103	-1158	-1061	-851	-592	-357	-184	-69	4	49	79	99	112	119	125	132	352	348	342	336	330	-8296	-8364	-8324	-8332	-8340	-6968	-7000	-6972	-6980	-6964	6816	6800	6836	6832	6752
734	89	688	0	15	317	1	100	0	0	1	139	144	147	148	149	152	158	163	167	169	171	174	180	187	194	201	210	219	229	241	254	267	282	298	314	328	344	358	371	383	389	388	384	379	371	360	346	328	307	284	259	233	203	170	138	103	69	38	9	-18	323	316	309	302	296	-8332	-8336	-8328	-8348	-8352	-6988	-6984	-6980	-6980	-6972	6824	6824	6800	6856	6772
735	89	688	0	15	317	1	100	0	0	0	-41	-59	-74	-87	-95	-100	-105	-107	-108	-109	-110	-110	-106	-101	-96	-92	-90	-87	-81	-77	-73	-70	-67	-64	-60	-54	-48	-43	-37	-33	-31	-30	-30	-29	-29	-27	-25	-24	-24	-23	-19	-14	-10	-8	-8	-9	-7	-4	-4	-3	291	287	284	282	281	-8340	-8312	-8356	-8320	-8336	-6968	-6980	-6996	-7000	-6980	6816	6860	6832	6812	6812
736	89	688	0	15	317	1	100	0	0	0	-3	-2	-2	-2	-2	-3	-3	-3	-1	2	4	6	10	14	16	18	18	19	26	36	48	55	55	49	42	36	30	26	22	19	15	10	4	-1	-2	-1	0	-1	-3	-4	-5	-3	1	3	4	7	17	40	81	146	280	279	278	278	278	-8308	-8344	-8344	-8296	-8320	-7000	-7008	-6980	-7012	-6976	6800	6808	6780	6788	6812
737	89	688	0	15	317	1	100	0	0	0	346	442	459	348	113	-215	-568	-866	-1040	-1054	-924	-703	-459	-256	-114	-20	42	81	106	126	140	148	151	156	161	163	164	166	169	170	169	170	173	177	183	189	193	197	202	210	218	228	238	249	260	272	285	301	320	338	278	278	278	277	277	-8316	-8328	-8260	-8316	-8340	-7000	-6980	-6996	-6976	-6956	6784	6864	6844	6900	6812
738	89	700	0	15	317	1	100	0	0	1	354	367	377	386	392	394	391	384	374	363	350	335	317	295	269	239	207	175	142	110	79	49	21	-4	-27	-47	-62	-75	-85	-94	-100	-104	-106	-108	-110	-110	-108	-104	-99	-95	-91	-85	-80	-74	-70	-65	-58	-53	-49	-47	277	278	280	284	289	-8356	-8308	-8336	-8328	-8312	-7004	-6968	-6984	-6948	-6960	6816	6824	6764	6796	6796
739	89	700	0	15	317	1	100	0	0	0	-45	-42	-38	-35	-33	-32	-31	-30	-30	-31	-31	-30	-28	-25	-24	-25	-26	-28	-29	-30	-31	-31	-32	-34	-35	-33	-31	-29	-27	-26	-24	-19	-15	-14	-14	-13	-5	6	15	18	15	9	1	-7	-13	-17	-18	-18	-20	-22	295	303	311	320	329	-8340	-8300	-8312	-8320	-8312	-6984	-6980	-6996	-6984	-7000	6776	6804	6808	6828	6800
740	90	700	0	15	317	1	100	0	0	0	-26	-30	-32	-34	-35	-35	-36	-35	-32	-29	-28	-27	-26	-24	-16	4	41	100	188	300	409	451	366	154	-155	-505	-823	-1041	-1107	-1021	-822	-576	-354	-190	-77	2	51	76	95	111	121	128	134	140	144	147	152	157	160	162	337	345	351	354	355	-8304	-8292	-8356	-8240	-8324	-7016	-6972	-6968	-7016	-6968	6784	6760	6876	6852	6872
741	90	676	0	15	317	1	100	0	0	1	164	166	169	174	179	186	192	198	204	211	220	232	246	261	277	291	306	321	337	353	368	381	390	395	396	393	388	379	367	352	334	313	291	266	236	205	172	138	106	75	45	15	-11	-33	-52	-65	-75	-83	-89	-91	353	348	342	334	324	-8296	-8336	-8320	-8344	-8300	-6976	-7012	-6956	-6964	-6984	6788	6780	6796	6844	6812
742	90	676	0	15	318	1	100	0	0	0	-89	-88	-89	-89	-90	-90	-89	-88	-87	-84	-79	-74	-68	-64	-61	-59	-57	-55	-52	-47	-42	-38	-35	-34	-33	-33	-33	-31	-29	-26	-25	-25	-25	-24	-24	-23	-22	-24	-26	-28	-30	-32	-32	-33	-34	-33	-30	-29	-29	-30	314	303	291	277	261	-8348	-8316	-8348	-8312	-8292	-6972	-6980	-6976	-6992	-6988	6888	6844	6792	6812	6772
743	90	676	0	15	318	1	100	0	0	0	-30	-29	-28	-28	-29	-29	-26	-21	-16	-12	-8	-5	-8	-11	-12	-8	-1	7	13	14	10	4	-5	-14	-19	-22	-23	-26	-28	-30	-33	-37	-40	-43	-45	-44	-42	-40	-40	-41	-42	-42	-41	-35	-16	20	82	176	295	407	245	227	209	190	170	-8324	-8320	-8324	-8324	-8336	-6984	-6980	-6988	-6980	-6992	6812	6824	6852	6856	6832
744	90	676	0	15	318	1	100	0	0	0	350	110	-238	-614	-930	-1124	-1162	-1053	-837	-579	-350	-187	-78	-8	39	70	89	100	107	113	121	128	132	138	144	148	152	153	156	158	162	166	170	176	183	191	199	207	217	227	240	254	271	287	305	326	346	363	376	385	150	130	111	91	72	-8328	-8272	-8344	-8292	-8364	-6964	-6996	-6992	-7008	-7008	6864	6832	6820	6836	6840
745	90	716	0	15	318	1	100	0	0	1	393	399	403	403	398	389	378	366	350	330	307	281	252	222	188	154	118	83	51	23	-4	-27	-49	-66	-79	-87	-93	-97	-101	-103	-107	-109	-108	-105	-101	-97	-95	-92	-88	-83	-78	-74	-71	-69	-67	-65	-62	-58	-53	-48	54	37	21	7	-6	-8340	-8336	-8332	-8344	-8336	-6972	-6992	-6968	-7004	-7004	6848	6872	6816	6836	6820
746	90	716	0	15	318	1	100	0	0	0	-45	-42	-40	-38	-36	-35	-36	-34	-32	-30	-31	-30	-29	-30	-32	-32	-31	-30	-29	-28	-27	-27	-28	-29	-28	-27	-27	-26	-27	-29	-31	-33	-34	-34	-34	-32	-27	-23	-18	-15	-15	-18	-21	-22	-16	-7	4	12	13	7	-18	-29	-38	-45	-52	-8344	-8312	-8324	-8300	-8300	-6984	-6984	-7004	-7000	-7016	6864	6804	6828	6836	6828
747	90	716	0	15	318	1	100	0	0	0	1	-4	-11	-17	-21	-24	-26	-29	-32	-37	-41	-43	-42	-43	-44	-45	-45	-43	-39	-37	-38	-40	-38	-23	9	65	146	252	362	422	367	174	-135	-499	-832	-1063	-1141	-1064	-867	-614	-377	-199	-82	-7	38	67	88	103	114	120	-58	-63	-67	-72	-77	-8324	-8308	-8336	-8332	-8308	-6984	-6984	-6996	-6980	-7040	6860	6816	6832	6832	6756
748	90	720	0	15	318	1	100	0	0	1	124	126	128	132	136	140	142	143	145	149	155	159	164	169	174	180	187	195	204	214	226	239	252	265	281	299	316	333	348	360	370	378	384	384	381	375	365	353	338	320	297	274	248	218	185	149	114	80	48	18	-83	-89	-95	-100	-104	-8340	-8324	-8312	-8324	-8304	-6976	-7000	-7000	-6992	-6976	6828	6776	6808	6832	6848
749	90	720	0	15	318	1	100	0	0	0	-11	-35	-56	-74	-88	-102	-113	-121	-124	-125	-124	-125	-126	-125	-123	-121	-118	-115	-112	-110	-107	-102	-99	-95	-90	-87	-86	-84	-80	-75	-70	-66	-61	-56	-54	-55	-58	-62	-63	-62	-61	-62	-64	-62	-59	-58	-58	-58	-58	-58	-107	-107	-105	-101	-95	-8304	-8272	-8336	-8348	-8284	-6980	-6980	-7024	-6980	-6992	6864	6816	6784	6764	6800
750	88	720	0	15	318	1	100	0	0	0	-58	-57	-57	-57	-57	-54	-52	-51	-47	-45	-42	-38	-35	-34	-35	-31	-24	-15	-8	-4	-5	-10	-15	-20	-27	-31	-32	-33	-36	-40	-44	-49	-54	-56	-55	-55	-56	-55	-54	-55	-54	-54	-52	-50	-44	-28	2	51	127	228	-87	-77	-67	-56	-46	-8264	-8292	-8276	-8316	-8308	-6976	-6980	-7008	-6972	-7004	6796	6772	6820	6792	6856
751	88	720	0	15	318	1	100	0	0	0	338	412	380	222	-38	-362	-689	-947	-1074	-1047	-892	-666	-439	-260	-134	-49	5	35	58	78	91	96	101	106	112	115	117	121	127	131	134	137	139	143	146	148	153	159	167	175	184	193	202	214	228	243	257	271	287	302	-37	-29	-22	-16	-11	-8308	-8300	-8296	-8324	-8336	-6988	-6940	-7000	-6972	-6984	6760	6864	6820	6820	6808
752	88	688	0	15	318	1	100	0	0	1	330	341	348	353	354	351	344	333	319	303	284	261	237	210	180	147	113	80	48	20	-6	-32	-55	-74	-87	-98	-107	-113	-116	-119	-120	-122	-124	-124	-123	-120	-115	-109	-104	-99	-96	-94	-91	-87	-83	-78	-72	-68	-66	-64	-7	-2	2	6	9	-8348	-8316	-8312	-8308	-8364	-6988	-6972	-6948	-6976	-7016	6764	6808	6880	6820	6832
753	88	688	0	15	318	1	100	0	0	0	-62	-60	-56	-53	-51	-49	-48	-45	-44	-44	-43	-40	-36	-35	-36	-37	-38	-38	-37	-38	-40	-42	-42	-41	-40	-40	-40	-38	-37	-37	-36	-35	-34	-30	-23	-20	-19	-20	-19	-14	-5	5	10	9	5	1	-4	-10	-16	-19	11	12	12	10	8	-8312	-8320	-8300	-8332	-8300	-7008	-7004	-7016	-6980	-6984	6792	6844	6840	6828	6808
754	88	688	0	15	318	1	100	0	0	0	-21	-23	-25	-30	-35	-38	-38	-37	-37	-38	-39	-38	-37	-37	-40	-42	-42	-35	-13	27	91	182	297	404	438	337	92	-258	-633	-945	-1131	-1159	-1042	-820	-560	-334	-172	-65	5	50	78	95	104	109	114	120	125	129	133	136	4	-2	-9	-17	-28	-8304	-8276	-8280	-8300	-8344	-6984	-6972	-6984	-7000	-6988	6804	6844	6812	6916	6908
755	88	696	0	15	318	1	100	0	0	1	138	140	143	146	147	148	149	153	159	167	175	182	190	200	210	221	234	249	265	283	302	320	335	347	358	368	374	375	373	367	359	349	333	314	295	273	247	216	181	147	113	78	43	10	-20	-46	-67	-83	-99	-113	-40	-54	-69	-85	-100	-8352	-8268	-8336	-8324	-8316	-6980	-6984	-7036	-7000	-6992	6836	6836	6792	6820	6828
756	88	696	0	15	318	1	100	0	0	0	-123	-132	-140	-145	-146	-145	-143	-143	-141	-140	-137	-132	-127	-125	-125	-124	-121	-117	-112	-108	-104	-101	-99	-96	-94	-91	-89	-88	-87	-87	-84	-79	-78	-79	-81	-81	-81	-80	-81	-84	-88	-88	-86	-86	-88	-92	-96	-98	-100	-102	-115	-130	-144	-158	-169	-8320	-8300	-8324	-8332	-8312	-7004	-6984	-7052	-6996	-6984	6764	6848	6828	6832	6804
757	88	696	0	15	318	1	100	0	0	0	-102	-103	-103	-98	-93	-89	-87	-87	-90	-92	-91	-86	-77	-66	-60	-60	-64	-70	-77	-87	-97	-104	-107	-110	-112	-115	-118	-118	-118	-119	-121	-122	-122	-122	-123	-124	-124	-122	-120	-117	-105	-76	-24	56	161	268	325	264	64	-250	-179	-186	-190	-192	-194	-8308	-8328	-8316	-8284	-8320	-6996	-7000	-7024	-6992	-6956	6800	6824	6820	6832	6776
758	88	696	0	15	318	1	100	0	0	0	-616	-949	-1176	-1249	-1166	-964	-709	-474	-303	-191	-118	-72	-44	-25	-11	-3	2	6	10	14	17	20	21	22	24	27	30	31	34	38	43	50	57	62	68	74	82	94	107	122	136	153	171	188	202	214	224	233	241	243	-194	-194	-194	-193	-192	-8304	-8308	-8308	-8300	-8312	-6992	-7008	-6948	-6988	-6992	6804	6728	6852	6864	6772
759	88	688	0	15	318	1	100	0	0	1	234	227	218	207	192	174	152	127	96	64	31	-4	-38	-73	-107	-137	-164	-191	-215	-234	-246	-255	-260	-264	-268	-271	-272	-273	-274	-273	-271	-269	-265	-261	-258	-254	-249	-244	-238	-233	-229	-227	-225	-223	-221	-219	-216	-214	-212	-210	-190	-186	-179	-169	-157	-8328	-8308	-8308	-8308	-8332	-7000	-6956	-7004	-6972	-7020	6860	6800	6832	6844	6800
760	87	688	0	15	318	1	100	0	0	0	-208	-207	-207	-207	-207	-206	-206	-206	-207	-207	-205	-202	-201	-200	-201	-203	-206	-209	-209	-208	-205	-200	-195	-194	-195	-196	-194	-186	-176	-166	-160	-163	-167	-170	-173	-180	-187	-191	-192	-192	-193	-196	-201	-202	-200	-197	-194	-193	-192	-190	-141	-121	-98	-73	-46	-8316	-8320	-8292	-8304	-8312	-6972	-6940	-6964	-6964	-6964	6840	6812	6824	6820	6776
761	87	688	0	12	318	1	100	0	0	0	-189	-187	-186	-186	-186	-182	-169	-142	-97	-31	61	170	265	278	163	-66	-380	-720	-1014	-1192	-1216	-1101	-895	-662	-465	-322	-222	-155	-117	-94	-75	-60	-54	-50	-44	-38	-34	-31	-26	-22	-19	-18	-16	-11	-5	-1	3	8	12	17	-18	10	38	66	93	-8320	-8308	-8308	-8256	-8312	-6980	-6996	-6976	-7028	-6996	6852	6800	6840	6784	6856
762	87	672	0	12	318	1	100	0	0	1	23	30	38	48	59	71	87	105	123	141	156	172	187	198	207	212	214	213	208	200	190	177	161	141	116	87	56	24	-9	-40	-72	-103	-132	-161	-186	-208	-225	-237	-245	-251	-256	-259	-259	-257	-257	-257	-256	-256	-254	-252	120	147	174	202	230	-8320	-8320	-8344	-8292	-8352	-6980	-7044	-6992	-6972	-6972	6776	6788	6824	6812	6756
763	87	672	0	12	318	1	100	0	0	0	-249	-246	-243	-237	-231	-225	-218	-213	-210	-207	-202	-198	-195	-191	-188	-185	-181	-179	-177	-173	-170	-167	-166	-165	-164	-162	-163	-164	-166	-168	-168	-167	-166	-163	-161	-159	-158	-158	-157	-157	-155	-151	-146	-142	-136	-129	-124	-122	-123	-122	257	283	308	331	353	-8340	-8328	-8324	-8328	-8332	-6988	-6992	-6992	-6956	-6968	6852	6788	6824	6804	6836
764	87	672	0	12	318	1	100	0	0	0	-116	-107	-98	-94	-95	-101	-107	-113	-119	-121	-121	-122	-124	-126	-127	-128	-128	-128	-130	-129	-128	-127	-127	-130	-133	-133	-132	-128	-118	-96	-54	13	111	229	330	347	229	-29	-385	-755	-1056	-1223	-1229	-1090	-854	-594	-375	-221	-121	-56	374	392	409	423	436	-8356	-8312	-8316	-8304	-8316	-6968	-6980	-6984	-7000	-6992	6820	6824	6844	6828	6816
765	87	684	0	12	318	1	100	0	0	1	-14	15	33	44	53	62	69	73	75	77	80	83	86	91	94	97	100	103	108	116	124	133	141	148	157	167	180	194	210	227	245	264	282	299	314	327	336	341	344	342	337	330	320	306	289	268	242	214	184	153	446	455	462	466	469	-8316	-8328	-8312	-8344	-8348	-7016	-6960	-6984	-7016	-6972	6712	6852	6808	6848	6836
766	87	684	0	12	318	1	100	0	0	0	122	89	56	25	-5	-35	-61	-84	-102	-115	-124	-132	-138	-141	-141	-140	-140	-140	-141	-141	-139	-134	-128	-122	-115	-110	-107	-105	-101	-97	-93	-88	-83	-78	-74	-70	-66	-62	-60	-57	-55	-53	-51	-50	-49	-47	-45	-43	-42	-44	471	471	471	470	470	-8324	-8324	-8332	-8328	-8288	-6984	-6984	-6976	-7004	-6976	6852	6864	6848	6824	6848
767	87	684	0	12	318	1	100	0	0	0	-44	-44	-43	-42	-41	-40	-39	-38	-37	-37	-39	-40	-37	-33	-30	-27	-24	-24	-24	-22	-18	-9	2	11	14	12	8	1	-7	-14	-18	-18	-17	-20	-25	-29	-31	-31	-30	-30	-31	-32	-30	-27	-25	-25	-26	-28	-26	-15	469	469	468	467	466	-8304	-8324	-8316	-8308	-8340	-6956	-6980	-7024	-6992	-7004	6848	6836	6820	6812	6820
768	87	684	0	12	318	1	100	0	0	0	12	58	126	224	338	426	422	283	14	-339	-695	-973	-1114	-1094	-937	-696	-443	-240	-100	-10	45	81	108	125	134	140	144	148	154	159	162	165	167	169	171	174	177	180	184	188	191	197	204	214	225	236	247	258	271	286	464	461	457	452	445	-8336	-8324	-8356	-8296	-8336	-6964	-6988	-6936	-7016	-6980	6812	6820	6788	6860	6796
769	87	688	0	12	318	1	100	0	0	1	301	317	335	351	366	380	389	395	398	399	398	394	385	373	360	343	323	300	274	244	211	178	144	109	74	41	11	-16	-37	-56	-72	-84	-91	-95	-98	-101	-105	-107	-107	-105	-102	-98	-95	-92	-88	-82	-77	-72	-69	-67	437	429	421	414	409	-8300	-8352	-8312	-8308	-8312	-7016	-6988	-6976	-7016	-7000	6800	6828	6884	6776	6788
770	87	688	0	12	318	1	100	0	0	0	-63	-59	-56	-51	-46	-41	-39	-36	-32	-29	-27	-25	-24	-23	-22	-21	-22	-22	-22	-22	-25	-27	-28	-27	-26	-25	-25	-25	-24	-24	-25	-25	-24	-19	-15	-14	-16	-17	-13	-4	7	16	19	16	11	5	0	-6	-11	-14	405	401	399	397	396	-8332	-8296	-8312	-8304	-8332	-6964	-6944	-7016	-6968	-6952	6804	6796	6868	6788	6796
771	87	688	0	12	318	1	100	0	0	0	-17	-20	-24	-29	-33	-35	-34	-33	-31	-29	-26	-26	-26	-25	-26	-27	-27	-20	-2	35	94	176	279	384	437	379	201	-76	-410	-732	-967	-1057	-994	-818	-588	-371	-207	-91	-12	36	62	80	95	103	105	108	113	118	120	123	395	394	393	391	389	-8324	-8296	-8312	-8328	-8340	-6976	-6940	-6952	-6972	-6944	6792	6820	6832	6804	6760
772	87	676	0	12	318	1	100	0	0	1	126	126	126	126	127	128	130	132	135	140	143	147	154	163	173	182	192	204	219	235	251	268	283	295	305	312	318	320	318	313	306	295	280	261	239	215	187	157	126	92	59	26	-7	-39	-70	-97	-120	-140	-157	-170	386	383	379	376	373	-8304	-8284	-8312	-8320	-8304	-6976	-6996	-7008	-7020	-6980	6728	6804	6792	6812	6804
773	87	676	0	12	318	1	100	0	0	0	-180	-187	-192	-197	-200	-202	-203	-203	-201	-199	-198	-195	-192	-190	-187	-185	-182	-179	-177	-176	-175	-175	-174	-172	-168	-164	-161	-160	-161	-163	-163	-163	-164	-165	-166	-166	-164	-164	-166	-168	-169	-169	-168	-168	-169	-170	-170	-169	-170	-172	371	370	368	365	362	-8324	-8336	-8404	-8324	-8324	-6960	-6984	-6980	-6980	-7012	6740	6848	6860	6836	6784
774	87	676	0	12	318	1	100	0	0	0	-171	-167	-164	-161	-157	-157	-157	-155	-149	-142	-134	-129	-128	-132	-139	-145	-151	-157	-158	-157	-158	-161	-166	-170	-172	-172	-173	-175	-176	-174	-172	-172	-173	-175	-174	-173	-170	-160	-133	-83	-7	99	218	300	274	102	-200	-574	-931	-1191	357	352	345	338	330	-8348	-8348	-8300	-8324	-8304	-6972	-6980	-6976	-7012	-6996	6796	6800	6832	6812	6812
775	87	676	0	12	318	1	100	0	0	0	-1301	-1253	-1073	-820	-570	-373	-239	-151	-97	-63	-43	-30	-22	-14	-6	0	4	6	8	10	13	15	15	16	21	28	35	40	46	51	58	66	74	81	92	104	119	137	155	173	190	206	220	232	244	254	258	259	258	253	322	313	305	297	289	-8340	-8364	-8300	-8356	-8332	-6996	-6920	-7004	-6976	-6988	6800	6792	6804	6812	6864
776	87	680	0	12	318	1	100	0	0	1	245	232	214	194	172	151	126	98	66	31	-3	-38	-70	-100	-126	-150	-171	-188	-201	-208	-211	-214	-219	-223	-225	-225	-223	-222	-220	-215	-209	-201	-195	-191	-188	-184	-182	-180	-177	-172	-167	-163	-158	-152	-150	-149	-149	-150	-148	-144	283	278	274	273	272	-8340	-8336	-8340	-8336	-8348	-7008	-6940	-6992	-6996	-7000	6828	6872	6808	6848	6868
777	87	680	0	12	318	1	100	0	0	0	-141	-142	-143	-142	-139	-136	-134	-135	-136	-137	-138	-140	-142	-143	-142	-139	-134	-132	-132	-134	-135	-134	-131	-125	-120	-118	-117	-115	-109	-101	-91	-83	-83	-88	-93	-99	-104	-107	-109	-111	-112	-114	-117	-122	-125	-126	-125	-123	-120	-118	273	275	278	281	285	-8316	-8332	-8348	-8340	-8308	-7012	-6992	-6980	-6960	-6984	6840	6836	6800	6820	6864
778	87	680	0	12	318	1	100	0	0	0	-118	-117	-116	-115	-113	-111	-109	-98	-71	-23	50	152	266	347	325	165	-123	-487	-841	-1108	-1231	-1189	-1012	-760	-506	-306	-170	-82	-27	6	28	43	54	63	70	74	77	79	82	84	88	91	94	98	103	109	114	119	126	133	290	295	299	303	306	-8324	-8348	-8312	-8336	-8308	-6972	-6996	-6980	-6956	-6992	6860	6860	6800	6848	6788
779	87	680	0	12	318	1	100	0	0	1	139	148	158	170	182	194	208	222	239	258	277	294	310	322	330	337	342	344	341	333	324	314	302	287	268	244	220	192	162	131	97	62	27	-6	-36	-62	-83	-100	-115	-128	-137	-143	-147	-148	-150	-151	-150	-147	-147	-146	308	309	309	310	311	-8336	-8352	-8360	-8308	-8336	-6944	-7028	-7020	-6940	-6940	6856	6852	6856	6860	6872
780	88	680	0	12	318	1	100	0	0	0	-144	-141	-135	-130	-126	-124	-121	-116	-114	-112	-109	-106	-104	-103	-102	-101	-99	-97	-95	-92	-89	-87	-87	-87	-86	-85	-85	-85	-85	-84	-83	-82	-82	-82	-81	-78	-77	-77	-76	-73	-69	-66	-66	-63	-57	-47	-36	-28	-27	-30	312	314	318	323	329	-8348	-8344	-8340	-8296	-8304	-6972	-7024	-6964	-6980	-6980	6836	6828	6820	6816	6808
781	88	680	0	12	318	1	100	0	0	0	-34	-41	-48	-54	-58	-61	-62	-65	-69	-70	-70	-69	-66	-64	-62	-61	-61	-60	-59	-57	-54	-50	-46	-36	-11	33	101	195	307	408	433	333	118	-188	-530	-832	-1021	-1054	-943	-736	-500	-298	-155	-56	11	50	74	94	109	116	337	346	356	365	374	-8328	-8328	-8332	-8328	-8292	-6980	-6972	-6984	-6968	-6984	6844	6824	6820	6852	6756
782	88	668	0	12	318	1	100	0	0	1	126	135	140	141	143	146	149	152	157	163	167	171	177	184	191	197	202	209	218	229	242	255	268	282	298	315	329	343	355	366	375	381	383	381	377	370	360	344	323	300	278	256	231	201	167	133	102	71	41	12	382	389	393	397	399	-8324	-8316	-8328	-8336	-8308	-6964	-6964	-6984	-6976	-6948	6848	6856	6816	6812	6808
783	88	668	0	12	318	1	100	0	0	0	-14	-35	-52	-66	-76	-84	-89	-93	-98	-103	-107	-109	-109	-107	-105	-102	-99	-95	-91	-86	-82	-79	-76	-73	-71	-66	-62	-59	-56	-53	-51	-49	-46	-44	-44	-43	-40	-38	-35	-33	-32	-32	-31	-31	-33	-34	-34	-33	-32	-30	401	402	403	404	406	-8316	-8328	-8340	-8332	-8312	-6972	-6992	-7000	-6988	-6976	6776	6812	6808	6780	6796
784	88	668	0	12	318	1	100	0	0	0	-29	-29	-27	-24	-20	-15	-11	-9	-10	-10	-5	4	14	21	23	19	12	3	-5	-11	-15	-18	-21	-27	-32	-35	-38	-38	-37	-38	-41	-43	-45	-46	-49	-50	-48	-44	-40	-32	-9	34	104	203	316	404	400	250	-37	-409	408	411	416	420	425	-8296	-8288	-8324	-8340	-8308	-6984	-6940	-6972	-6960	-6964	6852	6856	6800	6820	6840
785	88	668	0	12	318	1	100	0	0	0	-779	-1061	-1196	-1169	-1008	-765	-510	-303	-159	-65	-4	34	57	70	78	84	90	98	103	105	107	110	111	112	111	110	109	110	113	116	123	130	135	139	146	154	163	175	187	199	213	228	244	257	269	279	287	291	291	289	431	436	442	447	451	-8364	-8272	-8332	-8360	-8348	-6956	-7008	-6996	-6980	-6976	6928	6792	6884	6800	6824
786	88	664	0	12	318	1	100	0	0	1	284	277	266	253	236	216	193	167	139	109	77	42	7	-26	-58	-87	-115	-141	-164	-184	-199	-211	-220	-228	-233	-237	-238	-239	-239	-240	-241	-240	-238	-235	-231	-227	-222	-216	-211	-206	-201	-198	-195	-191	-187	-184	-183	-184	-183	-182	455	458	462	467	472	-8340	-8340	-8288	-8292	-8356	-6976	-7000	-7024	-7020	-6968	6832	6828	6800	6836	6784
787	88	664	0	12	318	1	100	0	0	0	-179	-178	-176	-175	-173	-172	-173	-174	-174	-171	-169	-165	-162	-160	-157	-154	-153	-150	-146	-142	-141	-138	-134	-132	-130	-129	-127	-128	-129	-128	-124	-117	-107	-101	-102	-109	-118	-127	-135	-141	-146	-151	-155	-160	-162	-163	-163	-165	-169	-171	476	481	484	486	487	-8360	-8324	-8328	-8328	-8312	-6988	-6944	-6976	-7000	-6996	6816	6852	6884	6808	6880
788	88	664	0	12	318	1	100	0	0	0	-170	-169	-168	-168	-167	-163	-160	-157	-151	-136	-104	-49	33	143	256	317	260	60	-262	-636	-974	-1205	-1279	-1195	-992	-733	-489	-306	-185	-108	-61	-29	-8	7	18	27	35	42	47	50	53	56	59	62	66	70	74	80	86	93	488	487	485	481	476	-8336	-8348	-8400	-8280	-8316	-6972	-7016	-6936	-6996	-6976	6864	6832	6856	6808	6856
789	88	680	0	12	318	1	100	0	0	1	114	124	132	139	145	152	164	181	200	220	240	259	275	289	303	314	320	322	321	317	312	305	294	280	261	237	211	184	155	124	91	55	19	-13	-42	-72	-102	-127	-145	-159	-169	-177	-184	-190	-193	-195	-197	-198	-198	-197	468	459	449	439	430	-8328	-8336	-8324	-8324	-8332	-6992	-6992	-6992	-6972	-7004	6844	6808	6832	6828	6816
790	88	680	0	12	318	1	100	0	0	0	-196	-194	-192	-189	-183	-176	-168	-162	-159	-157	-155	-152	-150	-147	-145	-144	-143	-140	-138	-137	-135	-133	-132	-132	-132	-130	-129	-127	-125	-125	-126	-129	-130	-130	-128	-126	-124	-125	-125	-122	-115	-109	-105	-105	-108	-110	-111	-108	-100	-88	421	413	406	398	391	-8340	-8344	-8364	-8304	-8280	-7000	-6948	-6952	-6992	-7008	6824	6832	6812	6824	6812
791	88	680	0	11	318	1	100	0	0	0	-77	-68	-66	-68	-74	-82	-91	-98	-104	-106	-107	-109	-110	-109	-108	-105	-101	-97	-95	-94	-94	-94	-92	-88	-83	-81	-79	-70	-47	-4	63	154	265	364	386	287	69	-241	-585	-885	-1071	-1101	-985	-773	-536	-333	-186	-88	-24	14	384	377	371	364	357	-8308	-8316	-8332	-8308	-8300	-7012	-6992	-7028	-6988	-7020	6776	6796	6824	6856	6792
792	88	680	0	11	319	1	100	0	0	1	35	51	64	70	74	80	85	87	90	94	100	102	103	105	108	113	117	121	128	136	145	153	160	168	178	188	201	214	226	240	256	272	287	301	311	319	325	328	327	323	317	309	297	282	263	240	214	188	160	129	350	343	334	326	317	-8288	-8316	-8336	-8364	-8268	-6960	-6948	-6960	-6992	-6964	6880	6824	6804	6836	6836
793	88	680	0	11	319	1	100	0	0	0	97	65	35	5	-22	-47	-69	-88	-104	-116	-125	-130	-133	-134	-135	-134	-133	-130	-127	-124	-119	-115	-114	-112	-111	-108	-103	-99	-95	-91	-87	-82	-77	-74	-71	-70	-69	-66	-64	-64	-65	-68	-71	-73	-73	-72	-69	-65	-63	-62	308	299	291	284	278	-8344	-8324	-8312	-8320	-8340	-6972	-6968	-6972	-7040	-6984	6808	6884	6816	6844	6852
794	88	680	0	11	319	1	100	0	0	0	-62	-62	-62	-62	-62	-61	-61	-59	-56	-53	-50	-49	-50	-51	-47	-38	-28	-19	-17	-21	-26	-32	-40	-47	-54	-61	-64	-65	-67	-68	-70	-70	-68	-66	-64	-65	-67	-67	-68	-70	-71	-70	-65	-51	-23	23	94	192	308	405	273	268	263	258	251	-8312	-8344	-8336	-8332	-8332	-6976	-6980	-6992	-6984	-7000	6808	6792	6844	6836	6780
795	88	680	0	11	319	1	100	0	0	0	416	283	9	-352	-720	-1016	-1173	-1164	-1015	-778	-522	-310	-164	-66	0	42	67	83	93	99	103	110	118	123	123	123	125	130	135	138	139	142	146	151	156	162	168	175	186	197	208	221	236	250	267	286	302	318	334	348	243	233	219	202	181	-8340	-8360	-8332	-8328	-8328	-6988	-6972	-7028	-6988	-6976	6812	6860	6904	6812	6848
796	88	660	0	11	319	1	100	0	0	1	362	372	378	380	379	375	367	353	336	318	300	279	253	225	195	164	134	102	71	43	17	-4	-21	-39	-55	-66	-73	-77	-79	-82	-84	-83	-78	-72	-67	-65	-61	-57	-54	-51	-48	-42	-34	-27	-19	-12	-6	-2	1	1	157	132	105	77	50	-8340	-8360	-8340	-8344	-8316	-7000	-6964	-6976	-6976	-7000	6780	6840	6800	6816	6832
797	88	660	0	11	319	1	100	0	0	0	6	10	16	23	29	33	34	36	38	39	40	39	38	37	38	42	46	49	50	49	46	45	45	47	50	55	60	67	74	80	83	83	84	88	97	107	115	118	117	113	105	95	87	84	85	86	84	79	76	77	-4	-31	-58	-85	-112	-8352	-8308	-8340	-8332	-8312	-6988	-6956	-7000	-7000	-6964	6884	6840	6816	6872	6892
798	88	660	0	11	319	1	100	0	0	0	79	79	76	72	70	71	71	71	71	72	73	77	87	112	158	228	329	444	531	525	381	103	-259	-618	-898	-1036	-1011	-849	-605	-350	-143	0	93	151	188	210	223	232	240	248	256	263	267	268	270	275	278	280	284	287	-140	-167	-195	-223	-251	-8328	-8336	-8308	-8348	-8356	-6964	-6996	-7008	-7012	-6976	6880	6884	6896	6840	6840
799	88	680	0	11	319	1	100	0	0	1	290	295	300	305	313	322	330	337	347	358	370	384	401	420	438	455	470	484	493	501	508	511	513	513	508	499	487	472	454	434	411	384	354	323	289	255	223	191	158	128	104	84	68	55	44	37	33	29	26	23	-279	-307	-334	-360	-383	-8352	-8380	-8348	-8300	-8328	-7004	-7044	-6988	-6984	-6968	6848	6828	6800	6832	6820
800	89	680	0	11	319	1	100	0	0	0	23	24	25	27	29	32	36	42	48	54	59	63	68	74	78	80	81	83	85	88	93	99	103	105	106	107	109	112	116	120	123	126	129	129	128	127	128	130	132	134	135	136	138	142	146	148	151	152	153	155	-406	-426	-446	-465	-482	-8336	-8352	-8324	-8296	-8304	-6980	-7012	-6968	-6972	-7000	6896	6828	6872	6816	6796
801	89	680	0	11	319	1	100	0	0	0	159	165	173	181	186	187	184	179	174	169	164	161	158	155	153	151	149	148	149	151	152	153	153	155	157	158	160	159	158	163	181	217	272	352	454	560	617	564	388	107	-235	-564	-805	-899	-834	-650	-410	-187	-20	95	-499	-516	-531	-546	-561	-8316	-8320	-8320	-8304	-8340	-7004	-6980	-6996	-6992	-6980	6796	6784	6804	6800	6912
802	89	672	0	11	319	1	100	0	0	1	172	218	242	262	279	291	298	304	311	315	317	319	322	325	326	327	331	335	338	341	345	351	359	366	373	382	393	405	418	431	443	457	475	494	510	522	531	538	541	541	538	534	528	517	502	485	466	446	424	397	-577	-592	-607	-620	-631	-8292	-8340	-8324	-8344	-8328	-6952	-6968	-6976	-6972	-6940	6892	6832	6776	6832	6824
803	89	672	0	11	319	1	100	0	0	0	365	332	298	264	232	201	171	144	118	97	79	63	50	41	36	35	34	31	28	28	28	29	30	31	32	34	38	41	43	47	51	53	56	61	64	65	65	64	65	66	67	68	67	65	64	64	64	64	63	60	-640	-646	-651	-653	-653	-8312	-8280	-8336	-8312	-8272	-6992	-6972	-7004	-7000	-6992	6860	6872	6900	6792	6812
804	89	672	0	11	319	1	100	0	0	0	56	55	56	57	58	58	57	57	56	56	57	57	56	59	66	74	81	85	82	75	66	59	53	48	46	44	41	37	35	33	34	36	36	35	33	32	31	33	34	35	37	39	46	64	102	163	251	362	474	525	-651	-648	-643	-637	-631	-8260	-8316	-8328	-8316	-8328	-6992	-6996	-6960	-6968	-6992	6788	6808	6816	6800	6840
805	89	672	0	11	319	1	100	0	0	0	449	235	-87	-454	-782	-1002	-1068	-978	-774	-521	-292	-124	-10	66	113	139	157	169	176	179	181	186	189	191	196	201	205	208	210	211	211	211	214	220	226	233	239	247	256	267	277	287	300	316	333	350	366	380	393	404	-625	-619	-615	-613	-612	-8316	-8308	-8308	-8320	-8352	-6992	-6992	-7008	-6972	-7024	6852	6820	6848	6820	6792
806	89	656	0	11	319	1	100	0	0	1	413	419	420	418	413	405	393	379	363	342	318	291	261	230	197	165	133	101	72	45	21	2	-15	-28	-37	-46	-51	-54	-58	-63	-66	-67	-65	-62	-58	-55	-52	-48	-41	-35	-29	-24	-21	-20	-17	-14	-8	-4	-1	1	-612	-612	-611	-609	-608	-8352	-8336	-8320	-8292	-8324	-7000	-6996	-6972	-7004	-7000	6860	6864	6760	6860	6792
807	89	656	0	11	319	1	100	0	0	0	2	4	7	9	10	10	9	9	11	13	12	10	8	8	8	7	5	2	0	-1	-2	-2	-2	-1	0	2	4	7	12	14	13	11	11	13	21	33	42	46	43	36	27	19	15	12	12	12	8	3	-1	-2	-605	-603	-600	-597	-593	-8336	-8348	-8324	-8272	-8336	-6992	-7012	-6992	-6964	-6992	6824	6836	6836	6868	6876
808	89	656	0	11	319	1	100	0	0	0	-1	0	-1	-3	-2	0	2	3	5	6	6	9	18	41	85	154	252	368	460	459	319	46	-314	-674	-954	-1097	-1079	-923	-681	-426	-219	-76	17	78	116	138	149	156	162	170	178	185	189	190	190	188	189	192	198	203	-589	-585	-581	-578	-576	-8352	-8308	-8320	-8312	-8328	-6980	-6976	-7016	-7036	-6984	6864	6804	6916	6836	6884
809	89	676	0	11	319	1	100	0	0	1	206	208	212	218	226	233	243	254	265	277	290	305	321	338	355	371	387	402	416	428	438	442	441	438	432	423	414	401	384	366	346	321	292	262	231	199	166	133	101	73	49	29	14	1	-11	-20	-27	-31	-31	-32	-576	-578	-579	-581	-581	-8320	-8348	-8368	-8356	-8308	-6984	-6984	-6972	-6952	-6992	6840	6840	6852	6848	6772
810	89	676	0	11	319	1	100	0	0	0	-32	-31	-30	-28	-23	-17	-13	-11	-9	-9	-9	-7	-4	0	6	11	14	16	19	24	29	32	36	41	46	49	49	47	46	48	49	49	49	50	50	49	47	46	46	47	48	49	49	47	45	44	43	46	51	56	-581	-579	-577	-574	-571	-8308	-8344	-8364	-8332	-8292	-6996	-7016	-7012	-6972	-6996	6896	6816	6808	6848	6784
811	89	676	0	11	319	1	100	0	0	0	62	66	65	61	59	62	70	79	86	87	85	82	76	69	63	58	54	50	46	41	37	34	33	32	32	32	32	32	33	33	33	32	32	35	46	73	122	194	290	394	474	470	339	86	-251	-599	-879	-1022	-1003	-852	-567	-563	-558	-554	-550	-8344	-8340	-8344	-8320	-8280	-7016	-6968	-6984	-6984	-6952	6800	6768	6832	6840	6868
812	89	688	0	11	319	1	100	0	0	1	-380	-189	-60	25	80	113	134	150	162	168	172	177	183	186	189	191	193	194	197	202	207	212	217	221	226	233	239	247	255	264	273	284	297	311	325	339	352	367	381	394	404	412	418	418	414	407	400	392	382	367	-547	-543	-539	-534	-529	-8340	-8272	-8316	-8324	-8340	-6952	-6988	-7000	-6988	-6988	6772	6764	6832	6736	6836
813	89	688	0	11	319	1	100	0	0	0	349	328	303	276	245	211	179	147	116	86	57	30	7	-12	-28	-41	-51	-60	-67	-71	-73	-74	-73	-72	-71	-68	-64	-60	-55	-53	-51	-50	-47	-42	-38	-36	-33	-30	-27	-25	-22	-21	-20	-20	-19	-21	-23	-23	-25	-25	-523	-516	-507	-497	-486	-8300	-8316	-8324	-8352	-8280	-6948	-6964	-6992	-7008	-6988	6800	6796	6876	6824	6784
814	89	688	0	11	319	1	100	0	0	0	-23	-20	-20	-21	-23	-26	-28	-29	-32	-36	-39	-38	-36	-35	-33	-31	-30	-32	-34	-36	-34	-28	-23	-21	-26	-33	-42	-50	-58	-64	-69	-73	-78	-83	-89	-95	-100	-104	-108	-113	-118	-122	-125	-127	-131	-136	-140	-143	-142	-134	-473	-459	-444	-428	-412	-8316	-8332	-8304	-8324	-8332	-6984	-6996	-6976	-6984	-6996	6860	6840	6848	6840	6824
815	89	688	0	11	319	1	100	0	0	0	-112	-69	1	98	206	282	254	95	-173	-516	-864	-1143	-1289	-1276	-1127	-899	-665	-479	-352	-268	-217	-189	-171	-157	-147	-145	-145	-141	-137	-137	-141	-144	-144	-143	-142	-140	-137	-135	-131	-128	-124	-119	-113	-106	-97	-86	-74	-62	-50	-37	-396	-379	-363	-347	-331	-8340	-8320	-8248	-8340	-8344	-6992	-6996	-7040	-6936	-6956	6804	6828	6808	6864	6872
816	89	664	0	11	319	1	100	0	0	1	-21	-3	17	36	52	65	73	80	84	85	84	76	63	48	32	14	-7	-30	-56	-86	-118	-150	-181	-210	-239	-267	-293	-314	-331	-343	-353	-361	-367	-369	-369	-369	-368	-368	-367	-366	-363	-361	-359	-355	-352	-350	-346	-343	-340	-336	-315	-298	-280	-261	-241	-8336	-8348	-8308	-8340	-8316	-6996	-6968	-6952	-7012	-7024	6848	6880	6868	6808	6876
817	89	664	0	11	319	1	100	0	0	0	-333	-332	-331	-330	-330	-330	-328	-327	-328	-330	-333	-336	-338	-341	-346	-353	-360	-364	-366	-371	-377	-385	-394	-403	-410	-418	-425	-433	-438	-441	-444	-446	-448	-451	-453	-455	-458	-464	-473	-479	-477	-470	-464	-463	-471	-483	-496	-508	-518	-526	-220	-198	-175	-153	-134	-8368	-8324	-8312	-8332	-8220	-7004	-6908	-6920	-6996	-7104	6868	6856	6764	6808	6892
818	89	664	0	11	319	1	100	0	0	0	-532	-538	-544	-551	-558	-564	-568	-570	-571	-571	-572	-573	-573	-570	-565	-560	-556	-553	-547	-532	-497	-441	-360	-251	-137	-77	-131	-325	-643	-1016	-1354	-1578	-1643	-1547	-1330	-1063	-821	-642	-522	-444	-392	-356	-331	-313	-300	-288	-277	-270	-264	-257	-119	-113	-115	-126	-146	-8252	-8324	-8300	-8292	-8292	-7188	-7132	-7036	-6960	-6992	6968	6900	6820	6856	6820
819	89	680	0	11	319	1	100	0	0	1	-239	-231	-221	-212	-202	-193	-185	-175	-166	-158	-147	-133	-118	-102	-87	-70	-51	-32	-13	8	28	48	68	86	102	114	123	129	134	138	139	135	124	109	92	74	54	32	7	-22	-51	-80	-109	-137	-164	-189	-210	-228	-243	-254	-173	-207	-245	-286	-329	-8336	-8316	-8444	-8384	-8340	-6968	-7004	-7008	-6964	-7000	6820	6836	6860	6968	6880
820	89	680	0	11	319	1	100	0	0	0	-261	-265	-268	-270	-270	-269	-268	-266	-263	-260	-254	-248	-240	-233	-227	-222	-218	-213	-208	-204	-199	-195	-192	-190	-186	-181	-176	-171	-167	-164	-163	-161	-160	-160	-160	-158	-154	-150	-149	-148	-146	-146	-146	-146	-147	-146	-144	-142	-140	-135	-370	-409	-445	-475	-498	-8284	-8284	-8300	-8360	-8344	-7084	-7072	-7000	-7032	-7004	6856	6804	6836	6764	6772
821	89	680	0	10	319	1	100	0	0	0	-129	-125	-125	-126	-121	-113	-103	-94	-89	-92	-97	-103	-110	-115	-117	-119	-122	-125	-127	-128	-129	-128	-128	-127	-129	-130	-131	-129	-125	-122	-119	-118	-115	-104	-79	-34	33	125	236	336	362	263	41	-275	-627	-936	-1127	-1162	-1052	-841	-512	-516	-510	-495	-473	-8284	-8320	-8236	-8224	-8328	-7036	-6964	-6984	-6940	-6992	6720	6736	6792	6832	6820
822	89	664	0	10	319	1	100	0	0	1	-597	-387	-237	-135	-68	-29	-7	12	27	35	40	47	54	59	63	69	74	78	82	85	88	92	97	101	105	110	118	125	133	143	154	165	177	192	207	224	244	264	281	293	304	312	317	318	316	312	306	297	286	272	-445	-412	-373	-332	-287	-8236	-8236	-8300	-8272	-8284	-7008	-6976	-7020	-7016	-7000	6772	6820	6752	6744	6792
823	89	664	0	10	319	1	100	0	0	0	254	231	205	176	148	118	87	55	24	-6	-33	-56	-76	-94	-109	-119	-127	-132	-137	-141	-141	-138	-137	-138	-138	-137	-134	-130	-125	-121	-117	-113	-109	-105	-99	-94	-88	-83	-79	-76	-74	-73	-72	-68	-61	-57	-57	-55	-53	-53	-239	-189	-137	-84	-32	-8240	-8224	-8268	-8264	-8308	-6980	-6956	-6996	-7004	-7016	6820	6820	6808	6784	6764
824	89	664	0	10	319	1	100	0	0	0	-53	-55	-57	-57	-53	-48	-46	-46	-47	-47	-47	-48	-50	-49	-44	-34	-23	-14	-10	-11	-16	-23	-32	-40	-44	-46	-49	-54	-59	-65	-69	-69	-65	-62	-60	-59	-60	-58	-54	-49	-44	-41	-37	-29	-8	33	97	187	302	413	20	69	114	155	191	-8252	-8288	-8264	-8292	-8272	-7032	-7016	-7028	-7044	-7088	6732	6736	6800	6820	6748
825	89	664	0	10	319	1	100	0	0	0	455	364	136	-198	-567	-886	-1089	-1137	-1037	-828	-579	-356	-194	-83	-10	34	60	80	95	106	112	116	122	129	132	134	133	130	130	134	140	144	148	153	159	166	172	176	180	187	197	209	223	237	252	269	289	307	323	336	221	244	260	270	273	-8264	-8256	-8280	-8276	-8292	-7080	-7052	-6920	-6996	-7072	6780	6788	6824	6796	6784
826	89	640	0	10	319	1	100	0	0	1	345	352	356	358	356	349	340	328	313	295	276	254	231	204	173	140	108	77	45	13	-14	-37	-57	-72	-85	-95	-102	-107	-111	-116	-119	-120	-120	-119	-117	-116	-116	-114	-110	-107	-105	-103	-100	-95	-90	-86	-81	-76	-73	-70	271	263	253	239	225	-8280	-8304	-8252	-8272	-8280	-7084	-6980	-7008	-6996	-7048	6860	6764	6708	6820	6816
827	89	640	0	10	319	1	100	0	0	0	-66	-65	-62	-60	-58	-55	-55	-56	-59	-61	-63	-65	-67	-71	-74	-73	-69	-64	-60	-58	-55	-54	-53	-53	-53	-47	-38	-30	-27	-29	-34	-40	-47	-56	-63	-68	-72	-75	-77	-80	-86	-89	-90	-90	-90	-90	-89	-89	-90	-91	209	194	179	165	151	-8328	-8264	-8268	-8292	-8288	-7032	-7016	-7012	-6996	-6992	6776	6808	6832	6812	6828
828	89	640	0	10	319	1	100	0	0	0	-91	-90	-87	-80	-65	-34	20	103	213	329	393	338	135	-191	-573	-920	-1158	-1242	-1165	-964	-703	-454	-266	-141	-61	-10	22	41	51	59	65	69	73	76	77	79	80	82	85	86	89	93	97	100	104	107	113	121	130	141	137	123	109	93	75	-8292	-8268	-8292	-8288	-8288	-7032	-7040	-7060	-7028	-7040	6724	6840	6800	6828	6764
829	89	644	0	10	319	1	100	0	0	1	151	162	174	187	201	216	233	251	267	281	291	296	300	303	304	301	294	283	267	250	230	210	186	160	134	104	69	32	-4	-37	-65	-90	-114	-135	-151	-161	-164	-170	-177	-183	-186	-185	-183	-180	-179	-177	-172	-163	-158	-156	56	35	14	-8	-30	-8284	-8296	-8296	-8296	-8296	-7028	-7020	-7012	-7024	-7040	6836	6796	6828	6728	6856
830	90	644	0	10	319	1	100	0	0	0	-154	-153	-150	-145	-141	-137	-132	-129	-124	-120	-118	-116	-115	-112	-110	-108	-105	-104	-105	-104	-103	-101	-101	-103	-106	-108	-108	-106	-107	-109	-108	-104	-100	-98	-97	-95	-95	-96	-95	-91	-85	-76	-65	-60	-64	-70	-78	-86	-91	-93	-50	-70	-89	-107	-124	-8304	-8300	-8308	-8316	-8324	-7024	-7036	-6996	-7048	-7016	6772	6816	6772	6844	6828
831	90	644	0	12	319	1	100	0	0	0	-95	-98	-101	-103	-105	-107	-108	-108	-108	-109	-109	-108	-106	-103	-100	-97	-97	-95	-84	-54	-3	73	176	288	368	352	199	-83	-445	-801	-1071	-1196	-1157	-983	-734	-482	-283	-144	-50	10	47	69	84	93	101	107	114	121	130	138	-139	-154	-167	-179	-191	-8280	-8284	-8260	-8328	-8248	-7036	-7024	-6984	-6976	-7028	6804	6832	6808	6796	6800
832	90	656	0	12	319	1	100	0	0	1	143	146	150	154	160	167	173	177	183	190	199	208	217	228	242	256	271	285	299	313	329	347	363	377	390	400	409	415	417	416	411	404	397	386	371	352	331	306	279	251	221	189	159	130	101	73	49	29	13	0	-202	-213	-224	-234	-243	-8304	-8304	-8292	-8216	-8084	-7000	-7048	-7084	-7068	-7080	6788	6768	6776	6784	6808
833	90	656	0	12	319	1	100	0	0	0	-9	-13	-15	-17	-20	-22	-24	-22	-20	-18	-15	-10	-4	2	6	7	9	11	15	19	23	28	32	36	39	42	45	49	51	52	54	56	57	61	64	64	65	67	68	68	69	72	75	78	82	87	91	94	96	101	-252	-260	-269	-278	-286	-8272	-8492	-8376	-8328	-8256	-6900	-6876	-6940	-7016	-7220	6924	6908	6896	6856	6828
834	90	656	0	12	319	1	100	0	0	0	120	129	132	131	128	126	128	132	137	142	144	141	138	136	134	134	135	136	137	139	140	144	148	147	145	143	143	152	176	218	282	369	477	583	631	558	363	71	-270	-585	-801	-867	-784	-594	-361	-151	4	111	185	230	-293	-296	-295	-291	-282	-8268	-8216	-8240	-8248	-8304	-7104	-7084	-7004	-6932	-6980	6796	6708	6792	6788	6760
835	90	644	0	12	319	1	100	0	0	1	255	272	286	294	298	303	312	317	319	322	325	329	334	340	345	349	353	358	365	374	382	388	394	399	406	416	429	444	459	476	493	511	529	544	553	557	558	560	560	559	554	543	530	517	499	477	453	426	395	364	-273	-263	-256	-252	-252	-8204	-8264	-8288	-8280	-8332	-7064	-7048	-7080	-7084	-7016	6824	6916	6924	6840	6764
836	90	644	0	12	319	1	100	0	0	0	334	306	278	250	222	200	182	168	156	146	138	135	134	134	133	132	131	133	138	141	144	146	151	156	161	166	169	170	174	181	188	194	199	202	206	212	215	215	215	217	220	223	225	225	225	228	230	229	227	225	-257	-268	-285	-308	-338	-8344	-8388	-8256	-8264	-8288	-6948	-6992	-7056	-7060	-7008	6764	6712	6800	6828	6828
837	90	644	0	12	319	1	100	0	0	0	224	225	228	232	236	238	238	236	235	238	245	253	259	262	260	255	248	241	236	230	225	221	217	212	207	203	199	198	199	201	202	202	202	202	202	202	202	205	213	234	276	340	430	543	647	679	581	339	-14	-396	-376	-420	-472	-527	-585	-8292	-8380	-8436	-8428	-8340	-6952	-6948	-6876	-6904	-7008	6820	6852	6920	6912	6876
838	90	644	0	12	319	1	100	0	0	0	-714	-903	-926	-795	-560	-296	-70	88	188	252	295	324	343	354	362	367	373	378	380	381	384	386	388	389	391	391	390	391	393	396	401	406	411	417	426	438	450	463	475	488	501	515	528	541	551	557	561	565	568	567	-643	-696	-742	-779	-806	-8268	-8236	-8344	-8348	-8328	-7084	-7100	-6948	-6908	-6936	6832	6728	6756	6716	6752
839	90	644	0	12	319	1	100	0	0	1	561	550	534	517	499	480	457	430	401	369	335	300	264	229	196	167	143	123	107	94	84	75	69	64	59	54	53	53	55	57	61	65	68	70	71	71	72	75	77	78	80	81	82	84	86	89	91	94	97	98	-823	-830	-828	-819	-805	-8324	-8268	-8256	-8308	-8352	-6956	-7040	-7000	-6940	-6980	6800	6800	6804	6880	6804
840	91	644	0	12	319	1	100	0	0	0	98	98	98	97	95	91	87	85	87	89	92	95	99	103	107	108	106	103	102	105	112	121	125	124	119	114	107	99	93	88	84	79	76	73	68	65	63	60	56	54	54	53	53	53	54	54	55	63	85	128	-787	-766	-744	-721	-697	-8380	-8336	-8288	-8284	-8232	-6972	-6972	-7004	-7032	-6972	6784	6768	6744	6772	6748
841	91	644	0	15	319	1	100	0	0	0	194	287	401	503	534	433	189	-162	-539	-852	-1036	-1061	-937	-712	-453	-229	-69	36	103	145	173	190	201	209	215	219	221	224	229	234	237	241	244	246	249	253	259	263	267	273	279	288	297	306	314	324	337	351	365	380	-674	-652	-632	-614	-599	-8336	-8296	-8268	-8324	-8304	-6980	-6988	-7076	-7084	-6976	6760	6856	6848	6848	6756
842	91	636	0	15	319	1	100	0	0	1	413	429	443	453	460	463	464	463	460	452	441	427	411	391	368	342	314	284	252	219	186	152	120	91	66	44	29	17	5	-5	-12	-19	-23	-24	-22	-21	-20	-15	-12	-9	-6	-2	0	3	7	11	15	18	22	26	-587	-576	-566	-556	-544	-8320	-8356	-8344	-8336	-8304	-6960	-6936	-6976	-6992	-6956	6764	6760	6760	6752	6796
843	91	636	0	15	319	1	100	0	0	0	27	29	31	33	35	37	39	40	41	42	43	44	46	45	42	39	37	39	42	45	48	52	55	53	50	50	54	63	72	77	75	69	65	63	57	51	46	42	39	36	33	29	25	25	29	30	29	28	27	26	-530	-514	-497	-477	-456	-8300	-8320	-8332	-8300	-8284	-6968	-6956	-6968	-6968	-7008	6792	6756	6776	6760	6764
844	91	636	0	15	319	1	100	0	0	0	28	31	31	31	32	43	67	110	176	267	378	481	516	426	213	-95	-440	-746	-944	-986	-884	-684	-452	-250	-103	-2	68	109	132	150	164	171	174	179	187	193	195	196	200	206	209	212	215	219	220	221	224	227	230	234	-435	-413	-390	-367	-343	-8288	-8300	-8320	-8272	-8312	-7020	-7012	-6936	-6924	-6944	6796	6788	6844	6788	6824
845	91	636	0	15	319	1	100	0	0	1	243	255	267	279	290	303	316	329	342	355	369	383	394	402	406	406	403	397	388	376	362	346	330	310	286	258	225	193	160	129	97	66	36	10	-10	-26	-40	-52	-63	-70	-75	-79	-81	-83	-84	-82	-80	-79	-79	-78	-319	-293	-265	-238	-209	-8328	-8296	-8260	-8252	-8324	-6964	-6972	-6952	-6968	-6976	6800	6768	6768	6768	6664
846	91	636	0	15	319	1	100	0	0	0	-78	-76	-74	-73	-70	-66	-63	-60	-58	-56	-53	-51	-51	-51	-51	-51	-52	-52	-52	-53	-55	-58	-60	-61	-63	-64	-63	-62	-59	-58	-61	-66	-70	-72	-69	-63	-58	-54	-55	-60	-68	-77	-86	-93	-98	-103	-109	-117	-124	-131	-182	-155	-129	-104	-80	-8304	-8276	-8288	-8280	-8304	-6976	-7000	-6988	-6976	-6964	6736	6700	6724	6748	6728
847	91	636	0	15	319	1	100	0	0	0	-135	-137	-139	-139	-139	-139	-142	-146	-148	-151	-153	-154	-154	-145	-117	-65	14	118	231	308	280	103	-206	-584	-944	-1206	-1319	-1271	-1095	-849	-604	-413	-284	-198	-144	-112	-95	-86	-80	-75	-71	-68	-67	-66	-65	-63	-60	-57	-57	-58	-58	-36	-16	2	18	-8280	-8308	-8316	-8296	-8316	-6984	-7008	-6992	-6964	-6976	6776	6760	6812	6860	6780
848	91	628	0	15	319	1	100	0	0	1	-59	-58	-56	-53	-49	-43	-35	-26	-19	-13	-7	2	16	33	48	62	76	90	102	112	119	122	123	121	114	106	95	81	63	44	24	2	-24	-54	-86	-120	-153	-185	-214	-241	-266	-288	-304	-317	-328	-336	-344	-348	-349	-350	32	44	54	61	67	-8304	-8316	-8324	-8300	-8304	-7000	-7040	-7024	-6980	-6984	6796	6740	6812	6792	6772
849	91	628	0	15	319	1	100	0	0	0	-350	-348	-344	-340	-336	-332	-327	-322	-318	-315	-313	-309	-305	-299	-294	-290	-287	-285	-283	-282	-282	-282	-281	-278	-274	-271	-271	-272	-272	-271	-270	-271	-272	-269	-266	-262	-258	-254	-253	-256	-259	-259	-254	-244	-233	-225	-223	-225	-228	-233	73	78	83	90	97	-8292	-8256	-8244	-8416	-8324	-6984	-7068	-7040	-6888	-6948	6768	6824	6800	6756	6748
850	93	628	0	15	319	1	100	0	0	0	-240	-248	-252	-253	-254	-255	-257	-261	-263	-263	-262	-261	-261	-261	-261	-260	-258	-255	-253	-251	-247	-235	-205	-153	-75	32	150	229	198	20	-291	-670	-1025	-1281	-1384	-1325	-1139	-885	-636	-445	-317	-234	-179	-145	-125	-114	-106	-99	-90	-83	107	119	132	146	160	-8276	-8240	-8360	-8352	-8364	-7032	-7024	-6960	-6912	-6900	6776	6812	6736	6748	6824
851	93	636	0	15	319	1	100	0	0	1	-78	-75	-73	-70	-66	-63	-60	-57	-53	-49	-43	-36	-28	-22	-17	-10	2	14	25	35	47	61	76	91	106	123	138	151	160	164	166	165	161	156	148	137	123	105	84	59	31	2	-27	-56	-87	-120	-152	-182	-208	-229	172	182	191	201	211	-8204	-8244	-8344	-8440	-8372	-7076	-7028	-6944	-6872	-6892	6792	6852	6828	6808	6716
852	93	636	0	15	320	1	100	0	0	0	-245	-260	-271	-280	-286	-288	-289	-286	-284	-282	-280	-276	-272	-267	-259	-251	-246	-242	-238	-233	-229	-223	-216	-212	-210	-208	-205	-202	-200	-198	-197	-194	-191	-187	-185	-184	-184	-184	-182	-180	-180	-177	-174	-171	-169	-165	-160	-155	-149	-147	224	239	255	270	284	-8304	-8244	-8320	-8372	-8372	-7020	-7068	-6960	-6844	-6936	6748	6764	6752	6760	6792
853	93	636	0	15	320	1	100	0	0	0	-145	-142	-135	-125	-113	-102	-96	-95	-97	-101	-108	-116	-123	-125	-126	-127	-127	-127	-128	-130	-129	-128	-127	-124	-121	-119	-118	-115	-111	-108	-103	-92	-65	-20	49	144	257	356	382	277	37	-300	-661	-963	-1135	-1143	-1010	-786	-539	-331	295	304	311	315	317	-8252	-8316	-8300	-8268	-8372	-7020	-6948	-6964	-7020	-6984	6796	6756	6804	6812	6764
854	93	644	0	15	320	1	100	0	0	1	-185	-88	-26	10	32	49	62	71	78	85	92	95	97	101	106	111	115	119	123	128	133	138	146	154	162	171	180	189	200	214	230	244	261	279	298	316	331	342	349	354	359	362	362	359	352	344	331	315	296	274	317	315	313	312	312	-8408	-8276	-8272	-8300	-8272	-6872	-6936	-6952	-7000	-7020	6836	6704	6784	6748	6816
855	93	644	0	15	320	1	100	0	0	0	250	223	194	165	133	102	71	41	14	-8	-27	-44	-57	-68	-75	-79	-81	-82	-83	-84	-83	-81	-78	-73	-69	-65	-61	-55	-49	-43	-38	-36	-35	-33	-29	-24	-19	-15	-13	-12	-10	-7	-4	0	4	6	7	8	8	8	313	317	321	327	333	-8308	-8308	-8276	-8320	-8296	-6924	-6932	-6968	-7016	-6980	6808	6756	6780	6756	6772
856	93	644	0	15	320	1	100	0	0	0	9	11	13	15	17	19	20	21	26	35	45	54	60	59	54	48	40	33	28	25	23	21	19	17	15	14	14	14	14	14	15	17	17	18	20	24	29	39	59	96	155	240	350	465	528	470	281	-11	-358	-684	341	349	359	369	379	-8308	-8280	-8296	-8296	-8308	-6988	-6960	-6948	-6968	-6980	6784	6776	6756	6756	6760
857	93	644	0	15	320	1	100	0	0	0	-1010	-947	-765	-527	-301	-128	-7	77	129	158	181	198	209	212	213	217	223	228	233	239	243	245	247	249	254	260	263	265	270	278	288	297	305	313	322	335	350	366	384	401	418	435	449	461	471	475	474	470	463	454	387	393	395	392	386	-8316	-8300	-8328	-8296	-8316	-6968	-6976	-6992	-6980	-7008	6740	6856	6788	6808	6752
858	93	624	0	15	320	1	100	0	0	1	443	428	411	391	368	341	310	280	250	219	188	159	132	107	87	69	56	46	36	29	24	22	23	21	19	18	17	18	21	25	29	32	36	39	43	49	55	61	64	67	70	72	76	79	80	82	84	84	84	84	376	362	346	326	303	-8336	-8308	-8304	-8252	-8284	-6976	-6976	-7008	-7016	-7012	6752	6748	6796	6760	6800
859	93	624	0	15	320	1	100	0	0	0	85	86	86	86	86	85	86	87	88	90	92	95	96	95	92	90	94	102	113	121	123	120	114	107	100	93	88	84	79	74	71	70	68	66	64	61	59	59	60	59	57	57	59	62	67	77	103	152	228	334	275	244	211	176	140	-8344	-8324	-8276	-8288	-8244	-6940	-6952	-7008	-7024	-7016	6792	6764	6832	6808	6784
860	94	624	0	15	320	1	100	0	0	0	452	536	515	351	54	-322	-682	-946	-1062	-1016	-839	-589	-339	-143	-10	76	130	162	181	192	200	206	212	216	218	220	225	230	232	234	236	239	243	248	252	255	260	267	274	283	292	302	313	325	338	350	366	383	398	412	103	66	28	-11	-50	-8344	-8324	-8360	-8268	-8356	-6972	-6904	-6880	-7000	-6956	6708	6772	6796	6732	6792
861	94	632	0	15	320	1	100	0	0	1	424	434	442	447	449	446	442	436	427	417	402	383	360	334	305	274	242	209	177	145	115	88	62	41	23	10	-1	-11	-18	-22	-25	-28	-32	-35	-36	-34	-30	-26	-23	-19	-14	-9	-6	-2	1	3	7	10	12	15	-87	-123	-157	-188	-216	-8360	-8344	-8280	-8304	-8328	-6952	-6960	-6988	-7004	-6944	6756	6776	6760	6836	6812
862	94	632	0	15	320	1	100	0	0	0	17	17	17	18	20	24	28	27	26	25	26	26	26	27	29	30	31	32	33	33	36	42	46	48	47	49	53	60	67	71	69	66	61	55	48	40	35	32	29	29	28	25	22	19	17	16	15	13	13	13	-241	-264	-285	-303	-319	-8408	-8304	-8288	-8272	-8336	-6960	-7004	-7012	-6976	-6860	6744	6788	6792	6788	6784
863	94	632	0	15	320	1	100	0	0	0	16	19	20	23	30	47	81	137	221	330	437	492	432	233	-79	-443	-778	-1003	-1067	-972	-764	-511	-284	-119	-12	57	99	124	141	155	165	172	177	181	186	190	193	195	196	196	197	199	201	204	208	213	219	225	231	238	-335	-349	-363	-378	-395	-8472	-8432	-8156	-8180	-8284	-6836	-6924	-7192	-7100	-7004	6812	6848	6816	6708	6708
864	94	640	0	15	320	1	100	0	0	1	248	257	266	276	290	304	320	336	352	367	380	390	396	399	401	402	399	394	386	375	361	343	322	297	270	243	212	180	148	116	84	56	30	7	-9	-22	-33	-41	-47	-52	-57	-59	-61	-62	-63	-61	-58	-55	-52	-49	-412	-430	-446	-459	-466	-8416	-8312	-8252	-8268	-8276	-6884	-6956	-6980	-6984	-7020	6720	6708	6780	6868	6816
865	94	640	0	15	320	1	100	0	0	0	-40	-34	-30	-27	-26	-24	-21	-19	-16	-14	-12	-12	-11	-9	-9	-8	-7	-6	-5	-5	-6	-5	-3	1	7	12	15	15	14	15	18	25	33	41	45	43	39	33	27	20	15	11	8	5	0	-3	-6	-8	-8	-7	-468	-466	-461	-453	-442	-8320	-8344	-8328	-8280	-8264	-7032	-6928	-6948	-6984	-7004	6824	6792	6812	6796	6756
866	94	640	0	15	320	1	100	0	0	0	-6	-5	-6	-6	-7	-7	-6	-4	-1	8	30	71	134	224	333	438	479	397	191	-108	-453	-766	-979	-1041	-952	-757	-519	-307	-152	-46	29	72	94	111	125	133	137	143	151	156	159	161	163	167	169	171	174	175	176	180	-429	-413	-397	-381	-367	-8320	-8336	-8300	-8288	-8304	-6944	-6912	-6960	-7008	-6976	6736	6744	6736	6704	6800
867	94	624	0	15	320	1	100	0	0	1	186	191	198	204	211	220	230	239	249	261	274	289	304	319	333	346	356	362	365	365	362	355	345	333	318	302	282	258	230	201	169	137	106	77	50	25	4	-14	-31	-46	-58	-68	-73	-78	-83	-87	-88	-88	-85	-81	-356	-347	-342	-340	-341	-8348	-8300	-8332	-8328	-8384	-6980	-6992	-6964	-6852	-7012	6784	6804	6828	6776	6716
868	94	624	0	15	320	1	100	0	0	0	-80	-78	-76	-75	-73	-67	-63	-59	-54	-49	-46	-44	-43	-40	-37	-35	-34	-33	-32	-30	-27	-25	-26	-26	-25	-23	-23	-22	-22	-22	-23	-25	-26	-26	-24	-22	-20	-19	-16	-16	-20	-22	-20	-12	-1	9	14	13	7	-1	-346	-355	-369	-388	-413	-8356	-8344	-8312	-8356	-8348	-7052	-7048	-6956	-6904	-6960	6816	6768	6760	6856	6840
869	94	624	0	15	320	1	100	0	0	0	-7	-10	-12	-14	-15	-17	-20	-24	-28	-31	-33	-33	-32	-31	-30	-28	-26	-26	-26	-27	-26	-18	6	51	119	215	331	430	446	328	69	-291	-667	-969	-1129	-1122	-969	-729	-474	-263	-116	-22	37	74	98	113	122	128	133	136	-441	-472	-502	-529	-553	-8340	-8324	-8348	-8328	-8332	-7016	-6968	-6920	-6928	-6880	6812	6788	6820	6804	6764
870	94	644	0	15	320	1	100	0	0	1	138	140	142	143	143	143	145	149	154	160	165	169	174	179	186	194	203	214	224	233	244	258	273	289	305	319	333	345	353	358	361	362	361	357	348	336	323	307	288	264	235	204	173	139	104	69	37	9	-18	-42	-572	-586	-594	-598	-595	-8248	-8344	-8372	-8364	-8324	-6996	-6980	-6992	-6960	-6940	6764	6808	6792	6800	6800
871	94	644	0	13	320	1	100	0	0	0	-62	-79	-92	-103	-112	-116	-118	-119	-120	-123	-125	-125	-124	-122	-118	-112	-106	-101	-96	-91	-88	-85	-81	-78	-75	-70	-63	-58	-56	-56	-57	-58	-59	-60	-61	-60	-58	-54	-53	-53	-55	-58	-60	-61	-61	-60	-59	-56	-51	-46	-588	-575	-558	-537	-515	-8352	-8304	-8320	-8312	-8332	-6956	-6968	-7028	-7000	-6952	6816	6816	6804	6744	6764
872	94	644	0	13	320	1	100	0	0	0	-43	-45	-43	-37	-28	-19	-16	-19	-24	-31	-40	-48	-55	-59	-60	-63	-67	-71	-75	-77	-76	-75	-75	-75	-76	-75	-75	-75	-74	-73	-70	-62	-38	9	80	176	286	376	385	264	10	-341	-707	-1004	-1161	-1149	-997	-761	-511	-308	-464	-438	-413	-387	-363	-8320	-8292	-8328	-8328	-8352	-6984	-6984	-7004	-6952	-6928	6800	6776	6776	6776	6716
873	94	644	0	13	320	1	100	0	0	1	-169	-76	-17	19	41	58	72	80	84	88	90	90	92	97	100	104	107	111	115	120	126	132	137	144	153	161	170	180	193	208	222	235	249	263	277	291	305	319	331	339	342	340	334	328	319	308	296	282	264	244	-339	-317	-295	-274	-253	-8312	-8284	-8356	-8360	-8304	-6976	-6960	-7012	-6956	-6932	6736	6832	6740	6808	6824
874	94	644	0	13	320	1	100	0	0	0	223	198	168	134	100	67	36	7	-19	-42	-62	-78	-90	-100	-111	-119	-123	-127	-127	-125	-123	-122	-119	-113	-107	-101	-96	-90	-85	-79	-74	-72	-69	-66	-60	-52	-48	-47	-45	-45	-44	-40	-38	-37	-36	-37	-37	-37	-37	-34	-232	-211	-188	-165	-139	-8296	-8260	-8304	-8332	-8296	-7004	-6984	-7000	-6992	-6952	6768	6776	6804	6784	6760
875	94	644	0	13	320	1	100	0	0	0	-30	-27	-24	-21	-19	-16	-11	-8	-6	-6	-6	-3	5	13	20	23	23	20	18	15	10	5	2	-1	-5	-7	-9	-12	-12	-10	-8	-7	-7	-6	-5	-5	-4	-4	-2	2	12	35	77	142	233	344	451	494	414	208	-112	-83	-53	-22	8	-8332	-8288	-8240	-8284	-8280	-6916	-6960	-6980	-6996	-6992	6764	6808	6788	6768	6772
876	94	644	0	13	320	1	100	0	0	0	-94	-440	-754	-964	-1023	-933	-736	-498	-286	-133	-30	42	84	108	128	143	151	154	159	165	169	170	172	178	183	188	192	195	196	197	199	204	210	216	224	233	243	253	263	274	285	299	315	331	346	360	372	382	390	394	37	64	89	113	134	-8324	-8328	-8308	-8264	-8340	-6952	-6900	-6924	-7056	-6964	6704	6776	6732	6736	6788
877	94	640	0	13	320	1	100	0	0	1	394	389	380	368	355	340	322	300	278	255	227	195	162	128	96	67	38	8	-17	-37	-52	-63	-72	-81	-87	-90	-93	-94	-94	-96	-99	-100	-98	-93	-89	-84	-80	-78	-77	-74	-72	-70	-66	-62	-61	-60	-57	-56	-55	-54	154	172	189	205	221	-8308	-8344	-8328	-8268	-8320	-6908	-6944	-6896	-6964	-7044	6724	6748	6772	6764	6772
878	94	640	0	13	320	1	100	0	0	0	-53	-52	-50	-48	-50	-53	-55	-56	-57	-58	-61	-64	-68	-71	-73	-75	-78	-79	-79	-78	-76	-71	-68	-68	-70	-71	-68	-61	-55	-53	-55	-61	-67	-73	-80	-86	-90	-93	-97	-102	-109	-116	-120	-122	-123	-124	-123	-123	-124	-126	235	249	261	273	283	-8352	-8360	-8340	-8288	-8332	-7008	-7000	-6944	-7016	-7016	6800	6760	6760	6732	6736
879	94	640	0	13	320	1	100	0	0	0	-128	-128	-129	-128	-122	-103	-63	1	94	207	305	321	203	-56	-416	-791	-1095	-1264	-1268	-1128	-895	-638	-424	-275	-179	-121	-85	-61	-46	-37	-32	-30	-28	-25	-24	-22	-20	-19	-16	-12	-8	-6	-7	-6	-3	0	5	13	20	28	293	300	307	312	317	-8348	-8348	-8288	-8324	-8328	-6916	-6876	-7004	-6976	-6924	6764	6764	6756	6852	6724
880	94	652	0	13	320	1	100	0	0	1	48	59	72	84	97	112	127	142	156	170	182	189	193	192	188	183	179	169	155	137	115	90	64	36	5	-28	-60	-91	-123	-154	-181	-206	-227	-243	-256	-266	-274	-281	-285	-287	-288	-286	-283	-284	-283	-281	-276	-271	-267	-263	324	331	341	351	362	-8352	-8336	-8324	-8308	-8304	-6928	-6992	-6972	-6912	-6940	6724	6764	6784	6844	6804
881	94	652	0	13	320	1	100	0	0	0	-259	-255	-249	-241	-234	-228	-223	-222	-222	-221	-217	-214	-212	-212	-211	-209	-206	-204	-202	-203	-203	-203	-201	-199	-198	-199	-200	-202	-201	-200	-197	-194	-191	-185	-179	-181	-186	-189	-187	-178	-165	-155	-152	-154	-158	-164	-170	-176	-179	-179	373	383	394	404	414	-8312	-8352	-8328	-8368	-8344	-7028	-6920	-6952	-6924	-6960	6796	6800	6784	6848	6800
882	94	652	0	13	320	1	100	0	0	0	-181	-184	-188	-193	-195	-194	-191	-190	-188	-187	-186	-184	-179	-174	-172	-169	-164	-147	-113	-58	23	132	244	306	255	64	-248	-614	-948	-1177	-1250	-1165	-964	-709	-474	-304	-192	-120	-74	-41	-18	-4	4	7	8	10	13	16	20	23	423	432	440	448	455	-8352	-8316	-8304	-8344	-8284	-6992	-7020	-6984	-6920	-6932	6764	6736	6720	6836	6832
883	94	656	0	13	320	1	100	0	0	1	27	32	36	40	46	51	55	60	65	72	80	90	100	111	122	134	148	164	181	197	211	225	241	256	266	272	275	276	274	269	260	250	237	221	202	181	154	124	93	59	25	-6	-34	-61	-86	-109	-129	-145	-155	-163	461	467	474	482	491	-8312	-8312	-8328	-8316	-8292	-6952	-6952	-6996	-6948	-6996	6800	6740	6752	6840	6736
884	94	656	0	13	320	1	100	0	0	0	-169	-174	-178	-180	-181	-179	-177	-174	-169	-166	-164	-158	-151	-145	-140	-134	-129	-125	-120	-117	-116	-114	-112	-109	-107	-104	-102	-100	-99	-96	-92	-88	-87	-86	-86	-86	-85	-85	-86	-87	-86	-82	-79	-76	-71	-66	-63	-63	-64	-65	503	515	529	544	560	-8276	-8364	-8284	-8308	-8288	-6960	-6952	-6960	-6972	-6972	6724	6716	6784	6788	6820
885	94	656	0	13	320	1	100	0	0	0	-62	-53	-42	-34	-30	-31	-35	-40	-44	-49	-53	-58	-61	-64	-67	-69	-70	-71	-68	-64	-63	-63	-61	-58	-55	-50	-48	-46	-40	-21	14	70	151	256	366	433	389	216	-61	-400	-727	-971	-1072	-1019	-847	-614	-391	-220	-103	-23	576	592	607	621	633	-8264	-8296	-8356	-8312	-8372	-6960	-6928	-6952	-6964	-6924	6800	6764	6784	6744	6892
886	94	648	0	13	320	1	100	0	0	1	26	55	75	92	103	108	112	119	126	130	134	137	140	140	143	147	150	153	157	162	170	179	186	193	202	213	226	241	254	268	283	300	318	333	346	358	366	372	373	372	369	363	355	344	327	307	284	260	235	208	642	648	650	649	646	-8296	-8312	-8364	-8308	-8312	-6952	-6944	-7016	-6992	-6920	6752	6788	6732	6780	6776
887	94	648	0	13	320	1	100	0	0	0	150	118	87	57	32	12	-6	-21	-33	-40	-47	-54	-61	-64	-63	-60	-57	-56	-55	-54	-51	-48	-45	-40	-36	-33	-30	-28	-24	-21	-18	-14	-10	-6	-2	0	3	7	9	9	8	8	7	6	4	1	0	1	1	0	639	629	616	600	581	-8308	-8284	-8340	-8316	-8368	-6980	-6948	-7000	-6968	-6996	6760	6836	6800	6756	6776
888	94	648	0	13	320	1	100	0	0	0	-2	-4	-5	-6	-6	-5	-5	-3	-1	3	6	7	7	5	5	8	16	25	32	33	29	24	18	10	2	-3	-3	-4	-6	-11	-15	-17	-16	-15	-16	-16	-15	-13	-9	-6	-6	-8	-9	-5	14	52	112	199	311	419	559	534	506	477	446	-8304	-8320	-8316	-8316	-8316	-6968	-6980	-6984	-6968	-6996	6772	6788	6752	6812	6792
889	94	648	0	13	320	1	100	0	0	0	459	373	145	-197	-574	-895	-1091	-1127	-1012	-791	-532	-305	-141	-32	35	78	105	121	130	136	139	142	146	149	152	154	157	161	163	163	163	164	166	168	171	173	175	179	188	199	209	220	233	245	260	276	290	302	312	322	414	381	347	313	278	-8304	-8288	-8308	-8316	-8344	-6972	-6980	-6992	-6964	-6964	6836	6736	6808	6792	6836
890	94	664	0	13	320	1	100	0	0	1	331	340	344	344	342	337	329	321	309	293	274	251	226	199	168	134	100	68	38	9	-20	-46	-66	-83	-97	-107	-117	-124	-129	-134	-138	-139	-140	-139	-136	-131	-126	-123	-121	-120	-118	-114	-110	-106	-104	-101	-96	-91	-89	-86	244	212	181	153	127	-8348	-8340	-8364	-8324	-8348	-6972	-6976	-7004	-6972	-6952	6784	6792	6808	6848	6836
891	94	664	0	13	320	1	100	0	0	0	-82	-79	-77	-77	-79	-80	-80	-78	-76	-75	-75	-77	-80	-82	-85	-89	-91	-92	-93	-94	-92	-91	-89	-87	-86	-83	-78	-75	-75	-76	-75	-71	-63	-52	-43	-41	-46	-54	-63	-71	-76	-79	-80	-82	-87	-91	-94	-96	-95	-95	104	84	67	52	39	-8356	-8376	-8248	-8292	-8340	-6952	-6988	-7020	-6960	-6896	6780	6784	6804	6748	6772
892	94	664	0	13	320	1	100	0	0	0	-96	-97	-95	-92	-91	-90	-90	-89	-87	-78	-56	-15	48	138	247	347	381	293	70	-260	-623	-936	-1126	-1154	-1030	-806	-551	-335	-183	-85	-23	18	46	66	80	90	96	100	104	108	111	113	115	119	123	126	129	133	138	144	27	16	7	0	-6	-8376	-8348	-8340	-8264	-8316	-6928	-6964	-7000	-6992	-6872	6756	6736	6856	6844	6824
893	94	664	0	13	320	1	100	0	0	1	150	158	165	172	178	187	200	213	227	241	254	268	283	297	312	326	339	348	354	356	353	348	341	331	320	306	290	272	252	227	197	165	132	99	67	38	11	-15	-37	-55	-69	-80	-89	-96	-101	-104	-108	-109	-109	-110	-9	-9	-7	-2	4	-8372	-8332	-8352	-8336	-8284	-6928	-6976	-6940	-6956	-7016	6752	6764	6800	6820	6824
894	94	664	0	13	320	1	100	0	0	0	-108	-105	-99	-93	-87	-82	-78	-74	-68	-64	-61	-59	-56	-51	-46	-42	-41	-42	-42	-41	-39	-38	-37	-37	-37	-36	-35	-35	-37	-39	-40	-39	-37	-34	-31	-27	-22	-20	-20	-22	-23	-19	-12	-4	2	5	5	4	0	-6	12	20	30	39	49	-8332	-8272	-8332	-8308	-8288	-7040	-6968	-6952	-6944	-6960	6812	6776	6740	6804	6792
895	94	664	0	13	320	1	100	0	0	0	-19	-25	-29	-31	-34	-37	-39	-39	-38	-37	-37	-36	-35	-34	-33	-33	-33	-32	-28	-15	10	54	122	216	324	419	435	324	95	-219	-560	-854	-1032	-1052	-932	-720	-484	-286	-145	-48	16	53	75	92	105	112	115	120	126	131	59	69	77	85	92	-8248	-8328	-8324	-8336	-8252	-6960	-6928	-6932	-6924	-7008	6796	6780	6756	6808	6668
896	94	644	0	13	320	1	100	0	0	1	135	139	144	146	146	147	149	153	157	164	172	179	185	190	198	207	217	230	245	259	273	287	302	318	334	346	358	367	371	370	365	357	347	335	320	301	280	258	232	204	173	142	111	81	53	27	2	-19	-37	-53	97	101	102	103	104	-8332	-8324	-8344	-8284	-8292	-6924	-6988	-7012	-7004	-6952	6800	6800	6668	6788	6832
897	94	644	0	13	320	1	100	0	0	0	-68	-80	-88	-94	-97	-99	-104	-107	-108	-108	-106	-105	-103	-99	-96	-92	-90	-87	-84	-82	-80	-77	-76	-76	-76	-74	-70	-67	-66	-65	-67	-69	-69	-69	-69	-68	-66	-65	-66	-67	-69	-70	-70	-68	-68	-68	-68	-66	-63	-61	108	114	123	134	144	-8308	-8384	-8452	-8320	-8300	-6876	-6852	-6864	-7052	-7032	6948	6776	6800	6800	6820
898	94	644	0	13	320	1	100	0	0	0	-58	-55	-56	-59	-62	-62	-57	-50	-44	-44	-48	-56	-64	-73	-83	-90	-94	-98	-106	-113	-119	-121	-119	-119	-118	-117	-117	-118	-119	-121	-120	-119	-118	-111	-94	-59	-2	81	190	301	354	287	79	-248	-627	-963	-1181	-1238	-1139	-926	153	158	159	157	153	-8360	-8372	-8352	-8292	-8308	-6932	-6876	-7020	-7064	-7004	6732	6780	6836	6808	6752
899	94	656	0	13	320	1	100	0	0	1	-668	-437	-269	-159	-90	-47	-21	-5	7	17	23	26	27	27	30	34	36	38	40	43	47	51	55	60	65	70	77	85	95	103	112	124	138	152	166	180	193	207	221	235	247	256	260	261	259	255	247	237	226	211	148	140	132	122	112	-8340	-8344	-8344	-8356	-8352	-6936	-6984	-6944	-7000	-6932	6860	6864	6748	6764	6748
900	93	656	0	13	320	1	100	0	0	0	191	168	143	116	87	54	19	-14	-44	-73	-100	-127	-152	-173	-187	-199	-209	-216	-220	-222	-223	-224	-224	-223	-222	-221	-219	-215	-210	-206	-203	-200	-198	-194	-190	-188	-185	-183	-180	-176	-174	-173	-172	-172	-172	-172	-172	-172	-173	-173	100	87	75	64	55	-8352	-8308	-8336	-8308	-8316	-6972	-6992	-7008	-6968	-6968	6832	6804	6808	6796	6744
901	93	656	0	14	320	1	100	0	0	0	-171	-170	-170	-170	-172	-172	-172	-173	-175	-174	-171	-168	-164	-160	-161	-163	-163	-159	-151	-142	-134	-134	-139	-143	-148	-151	-154	-157	-159	-161	-163	-166	-170	-172	-171	-168	-165	-164	-164	-163	-163	-163	-163	-161	-159	-153	-133	-93	-32	56	47	41	38	36	35	-8380	-8356	-8352	-8320	-8336	-6964	-6936	-6968	-6996	-6996	6804	6764	6760	6792	6820
902	93	656	0	14	321	1	100	0	0	0	165	268	314	242	33	-290	-657	-985	-1197	-1244	-1134	-917	-661	-437	-278	-175	-110	-70	-45	-28	-14	-3	4	10	15	17	18	20	23	27	31	36	40	44	48	53	59	66	73	80	89	98	107	117	129	143	158	175	193	210	35	36	38	40	43	-8312	-8340	-8312	-8332	-8296	-6984	-6948	-6968	-6940	-7004	6760	6880	6808	6840	6736
903	93	648	0	14	321	1	100	0	0	1	240	253	263	268	270	270	267	262	254	242	225	208	189	166	138	106	74	41	10	-21	-51	-79	-104	-125	-141	-156	-169	-179	-187	-192	-195	-197	-198	-197	-195	-190	-184	-178	-172	-167	-164	-162	-158	-154	-149	-143	-138	-133	-127	-119	48	54	63	73	86	-8296	-8328	-8360	-8348	-8284	-7012	-6984	-6932	-6936	-6940	6788	6816	6780	6752	6844
904	93	648	0	14	321	1	100	0	0	0	-114	-108	-103	-100	-98	-94	-91	-89	-88	-86	-85	-84	-84	-82	-79	-77	-73	-69	-65	-59	-56	-57	-59	-59	-55	-49	-41	-35	-33	-36	-42	-50	-60	-66	-70	-72	-74	-78	-82	-83	-83	-82	-80	-79	-80	-80	-80	-79	-77	-75	102	119	138	159	180	-8280	-8316	-8332	-8308	-8308	-6956	-7020	-6920	-6920	-6928	6772	6784	6808	6836	6784
905	93	648	0	14	321	1	100	0	0	0	-75	-73	-64	-43	-4	58	147	257	365	415	344	151	-138	-476	-791	-1011	-1082	-1003	-814	-579	-369	-215	-109	-35	9	36	58	77	87	91	95	100	105	108	111	114	118	123	124	125	127	128	132	139	148	159	168	177	187	195	200	219	237	252	265	-8312	-8304	-8364	-8260	-8348	-6960	-6956	-6940	-7008	-6932	6824	6736	6792	6724	6752
906	93	632	0	14	321	1	100	0	0	1	202	212	226	244	265	283	298	309	320	330	339	345	347	346	340	331	320	308	291	271	249	226	200	171	139	107	78	50	24	-1	-21	-38	-51	-62	-72	-80	-86	-89	-90	-91	-91	-90	-88	-87	-86	-82	-76	-70	-66	-63	275	281	285	285	282	-8376	-8352	-8296	-8348	-8340	-6908	-7012	-6976	-6992	-6976	6776	6804	6836	6760	6728
907	93	632	0	14	321	1	100	0	0	0	-61	-58	-54	-49	-44	-39	-35	-31	-28	-25	-23	-20	-19	-18	-16	-15	-13	-11	-9	-9	-9	-10	-9	-6	-4	-2	-3	-5	-4	-2	-1	0	3	4	6	8	10	14	22	31	37	39	35	30	24	19	14	10	7	4	274	261	244	224	201	-8356	-8292	-8320	-8332	-8372	-7024	-6972	-7004	-6948	-6944	6784	6772	6792	6784	6784
908	93	632	0	14	321	1	100	0	0	0	3	-1	-5	-6	-6	-6	-4	-4	-4	-3	2	8	10	13	17	25	42	79	138	222	331	436	477	394	170	-168	-542	-863	-1060	-1093	-971	-746	-488	-264	-106	-4	61	102	128	144	153	159	164	169	174	178	180	181	182	183	177	152	127	102	76	-8304	-8312	-8296	-8320	-8340	-7012	-7028	-7008	-6944	-6924	6820	6804	6824	6804	6732
909	93	652	0	14	321	1	100	0	0	1	186	191	196	201	206	211	216	221	227	234	242	253	264	275	289	304	318	336	355	371	385	396	404	411	416	417	414	407	399	389	375	359	341	320	295	268	239	206	172	138	106	78	53	29	8	-10	-24	-35	-42	-47	50	24	-2	-28	-52	-8312	-8312	-8292	-8348	-8360	-6972	-7000	-7020	-6972	-6960	6824	6836	6784	6788	6816
910	93	652	0	14	321	1	100	0	0	0	-58	-61	-62	-60	-58	-55	-53	-50	-45	-39	-33	-28	-24	-23	-22	-19	-14	-8	-3	-1	0	1	3	6	9	10	11	12	13	13	13	14	13	13	14	12	9	7	9	12	16	19	21	21	19	18	18	23	31	39	-74	-94	-113	-130	-146	-8352	-8348	-8272	-8360	-8376	-6996	-6960	-7020	-6932	-6924	6824	6820	6792	6768	6788
911	93	652	0	14	321	1	100	0	0	0	44	45	42	37	31	25	19	14	11	7	4	1	-4	-7	-8	-8	-7	-7	-8	-9	-7	-4	-2	-1	-1	1	14	45	97	177	283	395	456	409	225	-82	-449	-789	-1029	-1112	-1030	-827	-570	-332	-157	-44	28	73	101	119	-161	-174	-185	-193	-198	-8324	-8328	-8336	-8296	-8344	-7004	-7048	-6928	-6912	-6976	6824	6828	6844	6772	6732
912	93	644	0	14	321	1	100	0	0	1	132	142	150	155	157	159	160	161	164	168	170	173	176	179	182	186	189	194	199	207	215	222	230	241	256	271	285	299	314	328	342	354	363	368	373	379	381	379	374	366	355	340	323	303	279	253	225	194	162	129	-201	-203	-205	-207	-208	-8368	-8320	-8364	-8324	-8304	-6916	-6928	-6916	-6988	-6988	6776	6816	6788	6780	6796
913	93	644	0	14	321	1	100	0	0	0	97	70	42	16	-7	-27	-43	-53	-60	-66	-72	-75	-78	-80	-81	-81	-81	-78	-73	-69	-64	-60	-56	-52	-48	-43	-40	-37	-34	-32	-27	-22	-19	-16	-14	-13	-13	-13	-11	-9	-8	-7	-6	-7	-8	-9	-11	-12	-9	-7	-209	-209	-208	-205	-200	-8292	-8316	-8344	-8340	-8284	-6996	-6956	-6944	-6952	-6988	6784	6780	6712	6776	6740
914	93	644	0	14	321	1	100	0	0	0	-4	-2	-1	-1	-3	-2	2	7	14	21	23	20	16	9	3	-3	-6	-10	-14	-18	-22	-26	-27	-28	-28	-28	-28	-27	-27	-26	-24	-23	-22	-21	-15	0	32	83	156	255	364	448	438	303	62	-255	-588	-865	-1015	-1007	-194	-187	-178	-169	-159	-8276	-8320	-8312	-8308	-8264	-6968	-6964	-6948	-6936	-6984	6792	6796	6820	6820	6792
915	93	636	0	14	321	1	100	0	0	0	-868	-649	-423	-242	-114	-25	34	65	84	103	116	121	126	132	138	141	142	145	148	152	157	162	166	167	168	172	179	187	192	197	202	210	220	231	242	255	269	284	299	315	329	340	349	356	360	359	357	352	345	334	-151	-144	-139	-135	-132	-8324	-8316	-8424	-8324	-8228	-6956	-7016	-6936	-6992	-7028	6676	6732	6700	6792	6792
916	93	636	0	14	321	1	100	0	0	1	320	302	281	256	231	207	181	153	122	89	55	26	2	-19	-36	-51	-61	-69	-75	-79	-82	-84	-85	-86	-85	-83	-81	-79	-77	-75	-70	-64	-61	-58	-56	-53	-50	-46	-43	-40	-38	-38	-40	-40	-40	-38	-37	-37	-38	-38	-131	-133	-138	-145	-155	-8324	-8380	-8276	-8308	-8324	-6948	-6944	-6988	-7016	-6944	6800	6764	6864	6808	6796
917	93	636	0	14	321	1	100	0	0	0	-39	-41	-44	-47	-49	-51	-51	-51	-51	-50	-46	-41	-37	-39	-42	-41	-37	-31	-23	-18	-18	-24	-30	-38	-47	-53	-55	-59	-64	-69	-72	-73	-72	-72	-73	-75	-77	-76	-75	-73	-71	-70	-71	-72	-69	-56	-24	29	108	212	-166	-175	-183	-190	-197	-8356	-8352	-8292	-8296	-8340	-6928	-6992	-7044	-6984	-6956	6784	6760	6784	6784	6764
918	93	636	0	14	321	1	100	0	0	0	389	352	175	-130	-505	-858	-1107	-1196	-1122	-928	-678	-443	-267	-149	-75	-28	1	21	34	41	45	48	52	54	56	56	57	58	61	63	64	67	72	75	78	83	88	94	102	109	117	128	140	152	163	175	188	202	216	230	-202	-208	-215	-222	-229	-8308	-8332	-8292	-8308	-8332	-6936	-7012	-7028	-6920	-6944	6940	6836	6800	6868	6804
919	93	640	0	14	321	1	100	0	0	1	240	248	251	250	246	239	230	216	199	181	160	139	117	91	62	30	-3	-36	-66	-93	-119	-144	-166	-184	-199	-209	-216	-223	-229	-231	-232	-232	-233	-231	-228	-222	-217	-215	-215	-216	-214	-208	-201	-195	-191	-187	-182	-177	-173	-170	-237	-245	-253	-261	-268	-8420	-8364	-8296	-8332	-8320	-6912	-6992	-7056	-7016	-6960	6796	6800	6772	6740	6848
920	93	640	0	14	321	1	100	0	0	0	-170	-168	-166	-165	-166	-167	-166	-165	-163	-162	-163	-165	-166	-166	-167	-168	-167	-163	-159	-155	-152	-150	-150	-152	-152	-149	-142	-133	-125	-119	-119	-123	-128	-137	-144	-148	-150	-152	-156	-160	-163	-166	-167	-164	-162	-161	-161	-162	-161	-160	-275	-282	-290	-297	-302	-8376	-8348	-8312	-8296	-8312	-6916	-6992	-7036	-6968	-6940	6816	6800	6780	6800	6828
921	93	640	0	14	321	1	100	0	0	0	-159	-160	-160	-159	-152	-133	-93	-31	59	172	279	321	243	27	-305	-682	-1013	-1223	-1263	-1146	-922	-662	-436	-272	-164	-96	-57	-32	-15	-3	6	13	19	22	25	28	32	34	37	41	45	49	52	55	61	68	76	84	92	102	-306	-308	-308	-306	-301	-8320	-8312	-8364	-8332	-8284	-6928	-6960	-6956	-6972	-6960	6852	6808	6872	6788	6784
922	93	644	0	14	321	1	100	0	0	1	112	124	136	149	163	179	195	211	226	240	255	268	277	282	282	279	275	268	260	250	234	214	191	166	138	108	77	44	12	-19	-48	-75	-101	-123	-141	-156	-168	-177	-182	-185	-186	-186	-187	-187	-187	-187	-184	-180	-175	-169	-293	-282	-269	-254	-236	-8272	-8324	-8344	-8300	-8368	-7008	-7024	-6920	-6964	-6988	6764	6736	6800	6760	6748
923	93	644	0	14	321	1	100	0	0	0	-164	-160	-156	-152	-148	-144	-139	-135	-130	-125	-120	-117	-113	-109	-107	-105	-105	-103	-101	-100	-100	-99	-99	-100	-99	-96	-93	-90	-88	-88	-88	-89	-88	-87	-82	-74	-65	-57	-54	-57	-61	-66	-72	-77	-81	-84	-86	-87	-87	-88	-216	-195	-172	-148	-123	-8276	-8360	-8348	-8372	-8292	-6952	-6940	-6924	-6964	-6980	6816	6792	6836	6780	6796
924	93	644	0	14	321	1	100	0	0	0	-91	-93	-94	-92	-90	-87	-85	-83	-81	-80	-80	-80	-78	-65	-35	15	89	188	301	392	399	281	46	-275	-619	-908	-1069	-1069	-933	-715	-485	-299	-169	-80	-22	9	28	45	56	62	66	71	77	83	87	90	90	92	96	101	-96	-69	-42	-14	13	-8296	-8304	-8340	-8368	-8312	-7000	-6996	-6956	-6900	-6928	6864	6768	6760	6800	6816
925	93	636	0	14	321	1	100	0	0	1	110	114	119	127	136	144	151	160	170	179	190	202	215	230	246	264	281	295	306	315	321	325	327	325	321	314	305	294	279	259	236	211	185	157	126	95	63	32	6	-17	-37	-54	-68	-80	-90	-98	-102	-104	-104	-104	39	65	91	116	142	-8340	-8292	-8304	-8296	-8344	-6984	-6976	-6984	-6940	-6948	6836	6792	6812	6848	6900
926	93	636	0	14	321	1	100	0	0	0	-104	-102	-102	-100	-96	-92	-87	-81	-76	-73	-69	-65	-59	-53	-49	-46	-41	-37	-33	-32	-31	-29	-26	-24	-23	-23	-23	-22	-21	-23	-25	-24	-22	-17	-16	-15	-13	-9	-5	-5	-7	-7	-2	7	18	25	25	22	16	8	167	192	215	236	255	-8304	-8348	-8300	-8320	-8320	-7008	-6960	-6960	-6964	-6980	6796	6756	6744	6760	6784
927	93	636	0	14	321	1	100	0	0	0	0	-5	-9	-12	-14	-16	-20	-22	-23	-23	-22	-23	-24	-24	-23	-21	-19	-18	-17	-14	-8	10	48	110	200	317	430	483	413	197	-141	-526	-865	-1082	-1136	-1030	-813	-555	-324	-155	-46	24	68	96	114	125	130	135	141	147	271	283	293	299	301	-8296	-8320	-8320	-8324	-8292	-6960	-6968	-6992	-6968	-6980	6788	6812	6780	6816	6772
928	93	632	0	14	321	1	100	0	0	1	151	153	154	156	159	162	165	168	171	175	179	185	191	197	204	211	220	230	241	252	265	280	297	315	331	345	357	368	375	379	380	378	371	362	353	342	326	308	287	262	234	206	174	140	109	79	50	24	-1	-22	300	294	284	271	255	-8336	-8300	-8304	-8348	-8332	-6972	-6952	-7008	-6980	-6940	6760	6824	6804	6804	6804
929	93	632	0	14	321	1	100	0	0	0	-40	-54	-65	-74	-80	-85	-86	-87	-87	-84	-81	-78	-75	-71	-68	-64	-60	-57	-54	-50	-48	-46	-44	-42	-39	-36	-32	-27	-22	-19	-17	-16	-15	-13	-13	-11	-9	-8	-7	-7	-9	-11	-12	-10	-7	-3	1	7	11	11	239	222	206	191	177	-8332	-8300	-8344	-8372	-8376	-6968	-6972	-6988	-6980	-6952	6784	6800	6792	6852	6844
930	94	632	0	14	321	1	100	0	0	0	9	7	10	17	27	35	37	34	30	24	17	11	6	3	0	-3	-6	-9	-11	-12	-13	-15	-15	-14	-11	-10	-9	-9	-9	-9	-4	11	44	99	180	289	404	471	427	242	-67	-439	-783	-1024	-1110	-1035	-836	-580	-342	-165	164	151	140	128	117	-8304	-8320	-8324	-8312	-8352	-6984	-6984	-6960	-6980	-6984	6788	6832	6784	6812	6792
931	94	640	0	12	321	1	100	0	0	1	-47	27	74	105	124	136	143	147	151	156	160	165	169	170	172	175	177	180	187	196	204	207	209	211	217	226	236	245	254	265	280	298	315	330	344	358	373	385	394	396	396	397	398	395	386	373	356	336	314	290	106	95	84	73	62	-8304	-8332	-8348	-8344	-8308	-6976	-6960	-6968	-7020	-6952	6844	6824	6816	6784	6808
932	94	640	0	12	321	1	100	0	0	0	262	231	200	170	138	107	76	47	21	-1	-19	-33	-43	-52	-56	-58	-61	-61	-62	-63	-64	-63	-61	-59	-56	-51	-45	-39	-36	-33	-29	-24	-21	-21	-22	-22	-19	-15	-14	-14	-13	-12	-11	-11	-11	-12	-11	-10	-8	-7	52	44	37	31	25	-8304	-8372	-8344	-8288	-8360	-6964	-6972	-6976	-7008	-6916	6836	6732	6748	6796	6812
933	94	640	0	12	321	1	100	0	0	0	-8	-9	-8	-9	-10	-10	-8	-6	-5	-5	-4	-2	-3	-4	-2	6	18	29	35	35	32	28	22	13	6	2	1	1	-2	-5	-9	-11	-11	-11	-11	-12	-12	-10	-9	-9	-10	-10	-8	1	24	65	128	217	325	424	21	18	18	19	21	-8320	-8272	-8312	-8384	-8304	-6956	-7012	-6960	-6976	-6980	6804	6804	6772	6736	6764
934	94	640	0	12	321	1	100	0	0	0	459	376	171	-133	-482	-797	-1001	-1045	-939	-730	-488	-279	-131	-31	36	75	97	112	124	129	133	139	145	149	151	153	158	165	169	172	173	174	175	179	184	190	198	208	219	228	236	246	258	272	286	301	315	329	343	355	25	30	35	40	45	-8300	-8288	-8368	-8332	-8340	-6964	-6968	-6976	-6916	-6952	6796	6792	6724	6800	6824
935	94	656	0	12	321	1	100	0	0	1	365	373	378	381	380	376	370	361	349	334	317	297	273	245	215	186	155	124	93	62	34	10	-12	-30	-45	-56	-62	-68	-74	-78	-82	-84	-83	-82	-81	-80	-79	-75	-69	-62	-57	-53	-50	-47	-44	-43	-40	-37	-33	-29	51	57	64	74	84	-8268	-8296	-8316	-8376	-8348	-7004	-6984	-6980	-6956	-6940	6816	6784	6816	6668	6788
936	94	656	0	12	321	1	100	0	0	0	-27	-26	-24	-20	-17	-14	-12	-12	-11	-12	-12	-13	-14	-16	-18	-18	-16	-12	-10	-9	-9	-10	-9	-8	-9	-8	-4	5	14	21	24	24	19	14	8	2	-5	-11	-15	-16	-17	-21	-25	-28	-28	-25	-24	-23	-24	-22	95	107	119	130	140	-8316	-8344	-8296	-8328	-8348	-6992	-6936	-6940	-6980	-7004	6744	6812	6812	6808	6788
937	94	656	0	12	321	1	100	0	0	0	-19	-17	-18	-19	-17	-6	19	65	133	230	348	451	476	363	108	-246	-621	-929	-1096	-1094	-949	-715	-463	-251	-103	-6	55	92	114	129	138	143	145	150	156	159	160	161	163	165	166	167	169	170	172	176	181	186	194	201	148	153	155	154	149	-8364	-8312	-8312	-8320	-8304	-6976	-6956	-6980	-6972	-7024	6768	6824	6792	6740	6788
938	94	648	0	12	321	1	100	0	0	1	208	216	227	240	253	266	282	299	315	331	343	353	361	368	371	371	368	363	356	346	332	315	296	275	250	221	192	163	133	102	73	45	19	-3	-22	-40	-52	-58	-63	-68	-71	-74	-77	-79	-78	-77	-72	-67	-63	-60	140	129	116	102	88	-8320	-8336	-8328	-8336	-8320	-7012	-6992	-6968	-6932	-6976	6808	6772	6808	6836	6728
939	94	648	0	12	321	1	100	0	0	0	-57	-53	-48	-44	-42	-39	-35	-32	-30	-30	-29	-28	-25	-22	-18	-16	-15	-14	-13	-13	-14	-16	-17	-17	-16	-14	-14	-15	-17	-18	-20	-20	-18	-15	-14	-12	-9	-8	-9	-10	-10	-6	2	11	17	15	11	6	-3	-9	74	61	48	36	24	-8332	-8360	-8300	-8304	-8344	-6972	-6988	-6984	-6948	-6940	6844	6808	6824	6844	6844
940	94	648	0	12	321	1	100	0	0	0	-13	-16	-18	-22	-26	-31	-32	-31	-30	-30	-31	-31	-33	-34	-34	-33	-33	-34	-34	-28	-6	35	98	188	299	398	427	330	95	-246	-615	-924	-1108	-1128	-1000	-775	-521	-303	-149	-47	18	60	86	101	111	117	122	126	131	135	14	4	-6	-15	-25	-8320	-8336	-8352	-8316	-8388	-7000	-7024	-6956	-6916	-6912	6828	6820	6792	6760	6812
