14922	0	528	0	0	0	2	93	0	0	1	194 201 200 191 177 161 145 126 103 75 43 8 -27 -61 -93 -123 -149 -173 -194 -211 -221 -229 -233 -236 -238 -240 -241 -238 -233 -228 -223 -219 -215 -212 -209 -205 -200 -194 -187 -180 -174 -167 -160 -155 -151 -146 -139 -130 -121 -115	205 144 89 39 -2	-7776 -9200 -9524 -9540 -9764	-5324 -5632 -4808 -4452 -4608	8876 8468 8236 8288 8072
14923	0	528	0	0	0	2	93	0	0	0	-116 -120 -124 -129 -132 -136 -141 -143 -146 -149 -152 -157 -160 -162 -161 -158 -155 -152 -148 -145 -145 -144 -143 -143 -142 -133 -109 -63 12 112 215 258 200 48 -178 -448 -708 -894 -967 -915 -752 -547 -370 -241 -150 -91 -58 -37 -23 -15	-36 -64 -88 -109 -128	-9280 -9008 -8452 -9024 -9160	-4756 -4500 -5324 -5772 -5376	8172 8064 7620 8036 8020
14924	0	516	0	0	0	2	93	0	0	1	-10 -5 1 7 14 20 27 36 44 52 61 71 81 91 102 113 124 135 147 158 169 180 192 205 219 231 240 248 254 260 262 260 251 237 219 199 173 141 107 74 41 8 -22 -48 -72 -93 -111 -127 -141 -151	-143 -156 -168 -178 -188	-10156 -10908 -10048 -9504 -8928	-6172 -6080 -6032 -5460 -5940	8144 9036 8796 8492 9216
14925	0	516	0	0	0	2	93	0	0	0	-160 -169 -179 -191 -204 -216 -226 -235 -244 -257 -270 -280 -290 -305 -326 -347 -359 -354 -329 -296 -259 -214 -167 -130 -106 -96 -97 -96 -90 -86 -87 -94 -102 -111 -119 -128 -136 -141 -144 -145 -146 -146 -148 -149 -146 -140 -134 -127 -121 -115	-195 -200 -201 -198 -194	-8556 -9208 -9192 -8948 -8600	-6000 -5684 -5848 -6088 -6036	9140 8704 8664 8664 8640
14926	110	516	0	0	0	2	93	0	0	0	-107 -97 -86 -74 -59 -37 -1 54 135 252 393 497 493 359 105 -228 -560 -798 -889 -819 -617 -373 -173 -40 46 104 142 165 176 180 181 180 178 175 172 170 169 166 157 143 130 121 118 122 129 135 143 153 167 184	-190 -187 -189 -195 -206	-8512 -9052 -9100 -8860 -8868	-6084 -6076 -5780 -6064 -6004	8660 7668 8620 8764 8816
14927	110	524	0	16	0	2	93	0	0	1	222 245 270 293 313 330 347 361 371 375 374 367 357 343 322 298 271 243 212 180 148 115 84 54 27 5 -14 -32 -47 -59 -66 -71 -74 -76 -78 -78 -76 -72 -69 -66 -66 -66 -64 -60 -53 -46 -39 -35 -31 -25	-219 -232 -241 -245 -244	-9100 -9420 -10072 -9988 -10304	-6196 -6216 -6140 -5776 -5288	8540 8508 8392 8076 8384
14928	110	524	0	16	306	2	93	0	0	0	-19 -15 -10 -5 -4 -4 -3 -2 -1 2 3 -1 -9 -18 -28 -36 -44 -51 -58 -64 -69 -73 -76 -79 -82 -86 -89 -89 -89 -88 -86 -84 -82 -80 -77 -68 -47 -5 66 171 290 363 341 206 -42 -365 -687 -913 -987 -899	-240 -235 -229 -223 -217	-9320 -9100 -9288 -9508 -9500	-4688 -4608 -4696 -4840 -4724	8120 8180 8012 7840 7856
14929	110	524	0	16	306	2	93	0	0	0	-689 -452 -264 -134 -48 5 37 56 66 72 74 78 82 86 89 92 93 94 97 101 107 115 124 132 138 145 153 164 176 190 206 224 244 264 285 306 326 343 356 365 369 368 364 356 343 324 299 271 241 210	-210 -203 -197 -191 -186	-9416 -9248 -9076 -9428 -9436	-4896 -5004 -4912 -4988 -4924	7920 7808 8004 7932 8120
14930	110	520	0	16	306	2	93	0	0	1	176 141 107 73 40 8 -21 -45 -64 -81 -93 -103 -110 -116 -120 -123 -123 -122 -122 -120 -117 -111 -104 -99 -94 -90 -85 -79 -75 -72 -69 -66 -61 -53 -45 -40 -39 -39 -34 -27 -19 -17 -21 -28 -35 -42 -49 -56 -62 -65	-182 -178 -175 -173 -171	-9560 -9520 -9352 -9256 -9252	-5036 -5180 -5252 -5288 -5240	8204 8056 8112 7996 8012
14931	110	520	0	16	306	2	93	0	0	0	-68 -72 -75 -77 -79 -80 -80 -79 -78 -77 -75 -75 -75 -75 -73 -67 -53 -25 24 105 222 340 387 316 123 -168 -497 -780 -946 -966 -841 -622 -400 -233 -121 -47 -1 29 48 56 63 69 76 80 83 87 93 98 101 102	-170 -169 -168 -167 -167	-9276 -9368 -9396 -9320 -9336	-5264 -5336 -5468 -5484 -5476	7988 7992 7960 7972 7980
14932	110	524	0	16	306	2	93	0	0	1	105 109 113 118 124 129 137 148 160 175 191 209 227 247 267 289 311 333 352 366 371 370 366 358 349 334 310 280 250 219 184 148 111 74 39 8 -19 -43 -61 -76 -88 -99 -108 -114 -117 -119 -119 -119 -119 -116	-167 -167 -166 -165 -164	-9296 -9304 -9304 -9296 -9300	-5364 -5488 -5468 -5568 -5520	7920 7860 7944 7828 8012
14933	110	524	0	16	306	2	93	0	0	0	-111 -105 -99 -92 -85 -77 -71 -66 -62 -59 -57 -56 -53 -50 -48 -47 -44 -42 -39 -36 -34 -35 -34 -31 -24 -15 -10 -11 -17 -25 -32 -37 -42 -47 -52 -55 -56 -57 -59 -60 -61 -63 -63 -61 -60 -59 -56 -54 -54 -53	-162 -161 -160 -159 -158	-9276 -9260 -9316 -9312 -9304	-5584 -5536 -5528 -5588 -5524	7852 7852 7808 7800 7812
14934	110	524	0	16	306	2	93	0	0	0	-37 -8 41 122 239 350 389 313 106 -209 -557 -843 -991 -963 -781 -532 -311 -154 -52 13 53 76 85 91 98 106 111 114 119 125 130 133 137 141 144 146 150 156 165 175 187 200 212 225 241 260 280 300 319 338	-156 -155 -154 -153 -151	-9288 -9400 -9384 -9260 -9168	-5536 -5420 -5500 -5572 -5580	7776 7808 7716 7784 7792
14935	110	540	0	16	306	2	93	0	0	1	359 378 393 404 411 414 412 407 397 382 362 338 311 282 251 220 185 148 113 80 51 27 7 -11 -27 -40 -48 -52 -54 -55 -57 -57 -54 -50 -44 -39 -37 -36 -36 -33 -28 -22 -17 -14 -12 -10 -7 -5 -3 -1	-149 -147 -145 -143 -141	-9256 -9268 -9316 -9324 -9304	-5592 -5576 -5508 -5472 -5512	7800 7716 7716 7744 7700
14936	112	540	0	16	306	1	93	0	0	0	0 1 2 4 5 7 7 6 5 5 8 12 17 20 22 20 19 23 30 39 46 45 39 29 18 9 4 0 -3 -5 -6 -8 -8 -9 -9 -9 -9 -10 -10 -10 -7 -3 -1 4 22 56 111 199 314 407	-140 -138 -136 -134 -132	-9320 -9312 -9328 -9312 -9324	-5544 -5532 -5468 -5512 -5520	7676 7692 7736 7740 7712
14937	112	540	0	16	306	1	93	0	0	0	416 307 72 -255 -595 -852 -961 -902 -707 -461 -253 -110 -16 46 86 113 126 130 132 135 139 143 147 151 155 159 164 170 175 179 185 190 195 202 210 220 231 244 258 275 293 314 335 357 378 394 406 416 425 433	-129 -126 -124 -121 -118	-9332 -9316 -9328 -9312 -9304	-5536 -5532 -5500 -5520 -5512	7664 7656 7780 7668 7724
14938	112	572	0	16	306	1	93	0	0	1	435 430 419 405 389 370 345 315 282 247 211 177 142 107 74 45 19 -3 -21 -36 -48 -56 -60 -63 -65 -65 -64 -63 -59 -55 -50 -45 -40 -37 -34 -32 -30 -25 -22 -19 -19 -19 -18 -17 -17 -15 -13 -14 -15 -14	-116 -113 -111 -109 -107	-9292 -9328 -9276 -9324 -9264	-5460 -5536 -5528 -5508 -5508	7748 7724 7668 7668 7708
14939	112	572	0	16	306	1	93	0	0	0	-14 -15 -16 -17 -18 -18 -18 -16 -14 -11 -7 -4 1 5 5 4 4 10 19 26 27 23 18 12 4 -3 -7 -10 -12 -16 -22 -27 -29 -29 -29 -27 -25 -24 -21 -20 -20 -21 -15 7 48 112 207 323 411 404	-105 -103 -102 -100 -99	-9296 -9296 -9248 -9264 -9284	-5568 -5540 -5532 -5544 -5520	7720 7708 7732 7764 7768
14940	112	572	0	16	306	1	93	0	0	0	271 21 -303 -626 -861 -958 -910 -737 -505 -299 -150 -49 17 58 83 97 104 110 116 123 129 135 141 148 153 155 155 156 159 165 172 180 188 197 207 220 234 249 266 285 306 329 352 373 394 411 425 436 440 439	-99 -98 -98 -97 -97	-9312 -9256 -9264 -9296 -9340	-5540 -5556 -5540 -5532 -5528	7808 7664 7796 7760 7788
14941	112	596	0	16	306	1	93	0	0	1	430 418 402 382 358 330 300 267 233 199 166 134 103 77 54 36 22 11 2 -6 -10 -12 -12 -9 -4 3 9 14 18 23 30 38 45 52 58 62 64 66 68 71 74 78 80 83 85 87 89 90 89 87	-97 -96 -96 -95 -94	-9332 -9292 -9340 -9304 -9316	-5532 -5520 -5524 -5556 -5532	7752 7772 7676 7796 7772
14942	112	596	0	16	306	1	93	0	0	0	85 86 89 92 96 103 108 114 119 121 121 123 126 132 139 144 145 143 137 130 124 117 114 115 117 116 112 105 101 103 107 110 111 112 115 120 126 129 136 157 198 266 369 493 576 548 385 96 -262 -595	-93 -92 -92 -91 -90	-9288 -9324 -9328 -9292 -9284	-5540 -5532 -5580 -5568 -5600	7792 7860 7832 7828 7828
14943	112	596	0	16	306	1	93	0	0	0	-815 -878 -779 -558 -304 -96 49 140 196 233 254 264 268 270 272 274 278 281 284 287 290 292 295 296 298 301 305 311 319 329 342 356 368 381 395 411 431 452 475 496 514 527 538 545 549 548 542 530 514 492	-90 -89 -89 -89 -88	-9280 -9304 -9348 -9320 -9316	-5516 -5524 -5500 -5580 -5564	7952 7884 7808 7784 7808
14944	112	588	0	16	306	1	93	0	0	1	468 442 413 380 341 301 264 229 197 168 139 114 95 81 70 60 50 41 36 34 36 39 39 39 40 42 47 54 61 66 68 68 68 66 66 69 72 74 76 77 76 73 72 71 69 68 67 67 66 64	-88 -87 -86 -85 -84	-9328 -9292 -9292 -9284 -9320	-5544 -5540 -5560 -5580 -5556	7868 7752 7820 7820 7820
14945	112	588	0	16	306	1	93	0	0	0	61 58 57 57 56 56 59 62 64 65 66 66 67 67 70 77 84 86 81 74 68 62 54 47 42 37 32 26 19 16 17 18 17 15 14 14 14 14 15 20 36 70 129 222 340 425 409 264 -7 -360	-83 -81 -80 -79 -77	-9296 -9312 -9292 -9324 -9308	-5516 -5548 -5556 -5556 -5552	7832 7836 7800 7824 7804
14946	111	588	0	16	306	1	93	0	0	0	-704 -940 -1016 -923 -703 -450 -244 -102 -11 46 81 99 106 111 116 118 120 123 125 128 131 133 135 138 140 142 144 148 153 158 166 176 188 201 216 231 248 265 282 302 321 340 357 368 375 376 374 370 362 350	-76 -75 -74 -73 -72	-9332 -9292 -9288 -9340 -9312	-5488 -5604 -5584 -5600 -5552	7916 7728 7844 7808 7876
14947	111	604	0	16	306	1	93	0	0	1	332 308 279 247 214 180 142 103 66 32 0 -31 -59 -83 -103 -118 -128 -137 -145 -151 -153 -152 -150 -148 -144 -140 -135 -129 -124 -120 -117 -115 -114 -114 -113 -112 -111 -110 -111 -112 -114 -116 -119 -120 -119 -116 -113 -112 -114 -117	-71 -70 -68 -67 -65	-9308 -9296 -9280 -9320 -9276	-5548 -5580 -5564 -5580 -5544	7860 7760 7796 7772 7836
14948	111	604	0	16	306	1	93	0	0	0	-122 -126 -129 -131 -131 -129 -128 -130 -132 -133 -131 -125 -118 -112 -108 -107 -107 -107 -103 -96 -90 -86 -87 -92 -99 -109 -119 -126 -130 -132 -135 -139 -141 -139 -136 -135 -136 -139 -140 -138 -135 -134 -133 -131 -121 -97 -53 18 122 238	-63 -61 -59 -57 -55	-9292 -9264 -9236 -9220 -9248	-5612 -5676 -5696 -5456 -5244	7800 7744 7668 7816 7828
14949	111	604	0	16	306	1	93	0	0	0	305 260 87 -193 -525 -833 -1037 -1095 -1008 -807 -569 -371 -233 -139 -79 -45 -25 -13 -8 -5 -3 -2 1 5 11 15 16 17 21 23 24 25 28 35 44 54 64 74 86 99 111 125 142 161 181 200 218 234 244 251	-54 -53 -54 -56 -60	-9344 -9540 -9688 -9504 -9308	-5040 -4920 -4984 -5036 -4880	8020 7988 7856 7840 7768
14950	111	624	0	16	306	1	93	0	0	1	256 259 258 251 237 219 200 177 147 113 79 48 18 -16 -52 -86 -115 -138 -156 -170 -182 -195 -207 -216 -225 -230 -229 -226 -221 -216 -212 -207 -203 -201 -198 -192 -186 -183 -182 -183 -184 -180 -171 -165 -165 -170 -174 -178 -180 -181	-65 -70 -76 -81 -85	-9352 -9360 -9536 -9456 -9396	-4784 -4724 -4772 -4792 -4728	7896 7820 7808 7740 7672
14951	111	624	0	16	306	1	93	0	0	0	-180 -179 -179 -180 -181 -184 -184 -182 -180 -181 -183 -184 -183 -178 -169 -160 -153 -150 -151 -153 -152 -145 -138 -134 -134 -136 -139 -142 -147 -153 -157 -159 -160 -163 -167 -170 -170 -168 -166 -164 -161 -158 -157 -155 -153 -152 -148 -135 -107 -57	-88 -90 -92 -92 -92	-9600 -9556 -9508 -9500 -10076	-4672 -4892 -5132 -5372 -5864	7800 7728 8092 8016 8096
14952	111	624	0	16	306	1	93	0	0	0	23 132 230 244 134 -98 -416 -747 -998 -1107 -1061 -881 -641 -425 -272 -172 -108 -68 -47 -39 -34 -29 -25 -21 -20 -18 -16 -14 -12 -11 -8 -6 -2 6 13 20 26 32 40 50 59 69 82 96 114 133 150 165 178 187	-91 -89 -86 -84 -80	-10320 -9360 -9000 -8828 -8704	-6164 -5984 -6232 -5956 -5572	7896 8208 7664 8096 7924
14953	111	608	0	16	306	1	93	0	0	1	194 198 201 200 194 185 172 155 134 109 83 61 38 14 -12 -37 -58 -79 -99 -119 -139 -155 -166 -174 -182 -188 -191 -192 -193 -191 -189 -188 -187 -186 -181 -174 -170 -168 -167 -165 -161 -159 -158 -157 -156 -154 -152 -150 -148 -146	-76 -71 -66 -61 -57	-8512 -8644 -9164 -9396 -9392	-5312 -5560 -5752 -5804 -5564	8024 7956 7856 7664 7576
14954	111	608	0	16	306	1	93	0	0	0	-143 -144 -145 -146 -147 -147 -147 -147 -145 -143 -141 -138 -136 -135 -134 -135 -136 -136 -133 -127 -119 -113 -111 -114 -121 -127 -133 -140 -143 -147 -151 -152 -153 -151 -147 -143 -141 -141 -140 -138 -139 -141 -142 -141 -135 -117 -82 -29 52 155	-54 -51 -49 -47 -44	-9136 -9068 -8968 -8972 -9236	-5488 -5476 -5496 -5432 -5520	7468 7364 7444 7456 7408
14955	111	608	0	16	306	1	93	0	0	0	282 204 -5 -314 -636 -861 -926 -838 -646 -438 -277 -170 -103 -60 -33 -18 -8 0 7 13 16 17 20 27 33 37 41 45 51 56 63 72 84 96 107 115 123 131 141 153 167 180 193 206 217 227 237 245 249 247	-38 -34 -29 -26 -24	-9520 -10756 -10348 -9956 -9556	-5644 -5748 -5268 -4296 -4372	7160 7520 7852 8136 7908
14956	106	596	0	16	306	2	93	0	0	1	237 227 216 203 187 168 144 119 96 73 51 29 6 -14 -32 -50 -66 -81 -97 -110 -121 -131 -139 -143 -143 -140 -134 -131 -131 -131 -130 -126 -122 -118 -115 -112 -109 -107 -106 -105 -102 -99 -95 -94 -96 -99 -101 -102 -105 -107	-26 -29 -35 -41 -47	-9204 -9192 -9164 -9244 -9380	-4376 -4476 -4904 -5112 -4924	8528 8400 8116 8180 8080
14957	106	596	0	16	306	2	93	0	0	0	-108 -108 -108 -109 -110 -110 -108 -103 -97 -95 -97 -97 -93 -89 -85 -83 -81 -75 -67 -61 -63 -72 -81 -89 -94 -95 -94 -95 -100 -103 -104 -103 -101 -101 -103 -104 -102 -99 -97 -96 -95 -96 -91 -77 -46 13 100 191 245 221	-51 -54 -56 -56 -55	-9120 -9236 -9268 -9160 -8996	-4672 -4472 -4748 -4992 -4860	7936 7768 7744 7784 7780
14958	106	596	0	16	306	2	93	0	0	0	89 -155 -464 -742 -899 -900 -762 -549 -351 -213 -125 -73 -42 -21 -4 6 9 11 16 18 21 25 30 33 37 39 39 43 47 52 57 63 70 76 85 96 107 120 136 153 171 189 207 223 237 249 258 265 269 269	-54 -51 -48 -44 -38	-9172 -9308 -9484 -9768 -10448	-5112 -5472 -5644 -5744 -5796	7656 7500 7316 7656 7848
14959	106	592	0	16	306	2	93	0	0	1	265 261 256 245 230 210 188 165 138 108 76 44 14 -12 -37 -60 -78 -94 -109 -120 -127 -134 -140 -142 -143 -139 -132 -125 -120 -116 -111 -108 -107 -104 -101 -99 -98 -96 -95 -93 -92 -91 -92 -94 -96 -96 -95 -94 -95 -97	-32 -29 -29 -32 -36	-9428 -9296 -9744 -9604 -9440	-5668 -5628 -5588 -5728 -5696	8820 8988 8912 8692 8552
14960	106	592	0	16	306	2	93	0	0	0	-98 -97 -94 -94 -93 -90 -84 -81 -82 -82 -79 -72 -64 -58 -57 -57 -62 -72 -82 -89 -92 -93 -93 -95 -100 -102 -103 -103 -103 -103 -103 -103 -101 -99 -97 -95 -89 -75 -49 -2 73 175 275 314 249 73 -197 -513 -779 -916	-40 -42 -43 -42 -40	-9448 -9108 -8532 -8756 -8884	-5708 -5468 -5312 -5404 -5512	8344 8192 8200 8260 8352
14961	106	592	0	16	306	2	93	0	0	0	-778 -572 -371 -225 -126 -58 -17 5 22 35 40 43 47 50 51 53 56 59 60 63 67 72 76 77 77 78 82 90 102 116 129 142 154 168 186 207 228 248 266 281 290 295 299 301 299 295 285 272 254 232	-38 -36 -32 -28 -23	-9276 -9052 -8980 -10776 -10332	-5564 -5764 -5752 -5800 -5640	8464 8168 8000 8432 7796
14962	106	580	0	16	306	2	93	0	0	1	206 179 151 125 99 71 43 18 -4 -23 -39 -54 -68 -80 -88 -93 -98 -99 -98 -95 -92 -90 -88 -84 -80 -76 -74 -72 -68 -63 -59 -59 -60 -62 -62 -60 -59 -60 -60 -57 -52 -47 -44 -43 -43 -43 -44 -46 -47 -46	-19 -15 -13 -12 -14	-10036 -9712 -8692 -8744 -9048	-4812 -4836 -4796 -4680 -4508	8216 8300 8524 8664 8776
14963	106	580	0	16	306	2	93	0	0	0	-42 -39 -34 -33 -34 -37 -44 -53 -58 -61 -63 -65 -68 -74 -77 -78 -78 -78 -78 -77 -74 -71 -73 -76 -76 -73 -67 -53 -29 13 83 183 287 332 278 112 -154 -471 -758 -933 -961 -843 -627 -404 -233 -116 -42 1 28 44	-16 -18 -20 -21 -22	-9640 -9540 -9436 -9404 -9420	-4636 -4792 -4556 -4448 -4248	8612 8196 8224 8212 8344
14964	106	564	0	16	306	2	93	0	0	1	54 60 66 70 72 76 80 85 88 90 93 97 101 107 111 115 122 129 134 139 147 158 173 191 210 230 248 267 284 298 312 326 334 335 334 331 323 309 290 265 238 209 178 145 111 78 48 19 -10 -34	-24 -25 -26 -27 -28	-9340 -9420 -9616 -9576 -9532	-4444 -4504 -4460 -4356 -4304	8296 8268 8364 8316 8264
14965	106	564	0	16	306	2	93	0	0	0	-55 -71 -81 -90 -101 -109 -114 -117 -117 -119 -121 -121 -114 -104 -93 -84 -77 -73 -68 -63 -58 -53 -48 -44 -42 -41 -41 -42 -42 -42 -39 -38 -39 -38 -36 -34 -32 -30 -29 -31 -34 -35 -32 -25 -18 -16 -21 -27 -32 -38	-29 -29 -29 -29 -30	-9364 -9332 -9412 -9452 -9612	-4488 -4552 -4472 -4472 -4504	8244 8292 8380 8372 8384
14966	103	564	0	16	306	2	93	0	0	0	-44 -51 -56 -59 -60 -61 -63 -65 -67 -67 -68 -69 -70 -71 -71 -68 -66 -63 -59 -52 -35 -4 48 129 220 276 263 162 -41 -329 -634 -860 -941 -856 -650 -422 -247 -130 -54 -5 24 42 51 56 58 61 62 63 66 71	-31 -32 -32 -33 -34	-9624 -9776 -9748 -9176 -9172	-4400 -4656 -5016 -5308 -5300	8488 8636 8312 8568 8776
14967	103	568	0	16	306	2	93	0	0	1	78 83 87 91 94 96 99 104 111 118 124 131 141 154 169 185 200 216 234 253 270 286 299 309 317 321 320 313 301 287 271 251 228 203 174 143 111 76 41 10 -17 -41 -62 -80 -98 -114 -126 -133 -137 -140	-36 -38 -39 -40 -39	-9060 -9120 -9220 -9420 -9324	-5108 -5364 -5620 -5864 -5824	8852 8872 8992 8920 8968
14968	103	568	0	16	306	2	93	0	0	0	-141 -137 -131 -126 -123 -119 -116 -111 -105 -101 -96 -91 -88 -85 -82 -79 -78 -77 -76 -73 -71 -71 -73 -77 -78 -77 -76 -76 -78 -77 -76 -75 -73 -70 -66 -64 -63 -63 -61 -56 -50 -44 -42 -47 -52 -58 -65 -72 -76 -79	-38 -36 -34 -32 -30	-9160 -9156 -9172 -9108 -9080	-5824 -5860 -5924 -5916 -5880	8900 8848 8948 8884 8868
14969	103	568	0	16	306	2	93	0	0	0	-80 -81 -81 -81 -83 -83 -83 -83 -82 -80 -79 -79 -79 -77 -73 -65 -49 -22 22 96 199 292 314 228 28 -269 -592 -841 -952 -908 -732 -503 -309 -174 -86 -30 6 28 41 49 56 63 68 69 71 74 78 80 81 84	-29 -27 -25 -24 -24	-9152 -9224 -9276 -9396 -9192	-5888 -5908 -5940 -5848 -5844	8780 8844 8676 8836 8580
14970	103	592	0	16	306	2	93	0	0	1	87 92 97 101 104 109 115 124 134 146 158 171 186 203 221 239 259 278 293 305 316 325 328 325 316 304 292 276 254 230 206 181 153 123 89 54 24 -3 -30 -54 -72 -86 -95 -100 -104 -108 -110 -110 -109 -109	-23 -24 -25 -26 -27	-8968 -9072 -9096 -9292 -9384	-5676 -5772 -5780 -5824 -5852	8660 8724 8716 8624 8756
14971	103	592	0	16	306	2	93	0	0	0	-106 -101 -97 -92 -86 -82 -80 -78 -75 -68 -61 -56 -55 -56 -54 -47 -43 -42 -43 -47 -51 -52 -53 -55 -55 -55 -55 -55 -53 -51 -50 -49 -47 -44 -38 -33 -29 -29 -29 -27 -23 -18 -12 -11 -14 -18 -25 -32 -37 -41	-27 -27 -26 -25 -24	-9296 -9124 -9172 -9240 -9272	-5804 -5852 -5848 -5836 -5844	8768 8648 8560 8664 8680
14972	103	592	0	16	306	2	93	0	0	0	-43 -44 -47 -49 -53 -55 -55 -52 -47 -45 -45 -44 -41 -38 -35 -33 -28 -14 16 63 136 229 305 315 230 37 -251 -568 -814 -916 -855 -663 -429 -236 -107 -24 29 61 78 89 96 101 107 114 119 122 127 132 137 141	-22 -21 -19 -18 -16	-9276 -9184 -9152 -9244 -9160	-5740 -5744 -5776 -5764 -5704	8664 8680 8724 8732 8744
14973	103	600	0	16	306	2	93	0	0	1	146 152 159 168 176 181 187 195 205 218 234 250 265 278 294 312 333 356 377 390 396 401 405 408 409 408 403 391 377 360 341 319 296 271 243 214 187 161 136 113 91 72 58 50 46 44 43 43 45 50	-14 -11 -9 -6 -3	-9284 -9272 -9260 -9208 -9176	-5776 -5792 -5836 -5804 -5720	8680 8672 8712 8720 8588
14974	103	600	0	16	306	1	93	0	0	0	54 59 64 69 75 81 87 93 98 103 108 114 118 121 123 124 126 129 131 131 131 133 137 142 147 146 144 143 143 143 143 145 147 151 155 159 160 162 166 170 175 181 185 185 185 187 193 204 214 221	0 3 6 8 11	-9168 -9204 -9216 -9192 -9228	-5776 -5832 -5816 -5840 -5812	8636 8652 8628 8540 8532
14975	103	600	0	16	306	1	93	0	0	0	217 210 202 199 200 203 205 204 202 203 205 207 208 209 211 214 216 217 218 219 220 225 241 272 326 409 508 576 567 457 234 -76 -394 -626 -707 -621 -410 -174 14 141 225 277 308 322 327 329 334 339 342 344	13 15 17 18 18	-9188 -9200 -9268 -9224 -9260	-5820 -5872 -5864 -5888 -5852	8520 8496 8476 8504 8556
14976	101	624	0	16	306	1	93	0	0	1	347 351 355 359 361 363 366 369 375 380 384 391 399 408 417 427 437 450 464 479 494 510 529 548 566 578 586 590 591 587 581 572 558 541 522 498 470 439 406 370 335 301 268 238 208 182 161 145 132 120	19 19 18 18 18	-9136 -9248 -9212 -9212 -9220	-5828 -5880 -5920 -5932 -5912	8536 8464 8484 8440 8496
14977	101	624	0	16	306	1	93	0	0	0	112 106 101 98 97 98 100 104 109 113 117 122 124 125 127 129 130 132 134 138 140 140 138 136 134 131 128 125 122 122 120 118 116 113 109 106 102 100 98 98 98 97 97 97 97 96 95 94 93 93	17 17 17 18 18	-9236 -9280 -9224 -9256 -9212	-5972 -5924 -5864 -5820 -5788	8460 8400 8408 8388 8416
14978	101	624	0	16	306	1	93	0	0	0	92 92 91 93 95 96 97 99 99 99 98 99 103 109 114 113 107 100 93 86 78 71 67 62 57 52 48 45 45 45 45 45 45 43 40 39 38 39 47 64 97 154 243 350 419 392 255 22 -272 -565	19 21 23 25 28	-9188 -9244 -9212 -9200 -9164	-5820 -5836 -5836 -5828 -5844	8448 8436 8472 8448 8448
14979	101	624	0	16	306	1	93	0	0	0	-787 -889 -853 -692 -470 -267 -117 -13 54 93 114 123 125 128 133 138 141 142 145 148 152 155 154 153 153 155 160 165 170 176 183 192 202 213 225 239 255 273 292 311 328 344 357 367 375 379 380 376 369 357	30 33 35 37 39	-9192 -9168 -9204 -9224 -9236	-5800 -5844 -5816 -5816 -5836	8568 8380 8440 8388 8404
14980	101	668	0	16	306	1	93	0	0	1	339 316 289 260 227 191 155 119 85 53 23 -5 -31 -53 -70 -81 -92 -103 -113 -121 -125 -125 -121 -118 -117 -115 -111 -107 -101 -96 -94 -93 -91 -91 -88 -85 -83 -83 -84 -86 -86 -87 -87 -87 -89 -91 -92 -92 -93 -94	40 41 41 40 38	-9256 -9204 -9272 -9208 -9228	-5756 -5820 -5792 -5800 -5784	8460 8388 8324 8372 8404
14981	101	668	0	16	306	1	93	0	0	0	-96 -100 -104 -107 -107 -108 -110 -111 -111 -112 -113 -112 -112 -112 -110 -107 -103 -97 -92 -89 -89 -89 -86 -82 -76 -72 -72 -77 -85 -94 -103 -113 -119 -120 -121 -125 -128 -131 -134 -133 -130 -129 -130 -131 -131 -131 -130 -129 -126 -119	36 33 30 26 22	-9244 -9252 -9236 -9224 -9220	-5800 -5812 -5824 -5840 -5816	8336 8360 8288 8288 8260
14982	101	668	0	16	306	1	93	0	0	0	-53 17 120 227 267 193 -1 -299 -640 -935 -1107 -1122 -981 -738 -494 -306 -177 -96 -49 -21 -9 -4 0 6 10 12 14 15 15 16 18 22 26 32 37 41 45 50 58 68 79 91 103 117 133 149 166 185 205 224	18 14 11 7 4	-9252 -9196 -9184 -9192 -9196	-5832 -5892 -5832 -5880 -5888	8228 8160 8288 8260 8240
14983	101	644	0	16	306	1	93	0	0	1	242 258 271 280 284 283 280 272 259 244 224 199 171 141 108 72 35 -3 -40 -76 -107 -132 -154 -173 -189 -200 -208 -212 -215 -217 -219 -218 -215 -211 -208 -205 -201 -196 -192 -190 -189 -188 -186 -184 -182 -179 -177 -177 -175 -173	1 -1 -4 -6 -7	-9228 -9260 -9248 -9220 -9204	-5856 -5896 -5880 -5876 -5876	8256 8244 8208 8304 8324
14984	101	644	0	16	306	1	93	0	0	0	-171 -169 -168 -167 -167 -167 -169 -171 -173 -172 -172 -174 -176 -176 -176 -176 -179 -180 -180 -181 -182 -182 -183 -182 -179 -177 -178 -180 -183 -184 -185 -182 -179 -175 -172 -169 -166 -162 -161 -161 -163 -162 -153 -141 -129 -125 -131 -142 -152 -159	-9 -10 -11 -12 -13	-9188 -9180 -9164 -9176 -9232	-5928 -5912 -5928 -5964 -6000	8308 8296 8308 8336 8328
14985	101	644	0	16	306	1	93	0	0	0	-163 -165 -166 -167 -171 -174 -174 -174 -172 -170 -170 -170 -168 -166 -165 -165 -163 -158 -147 -119 -73 1 105 198 218 125 -87 -397 -735 -1005 -1136 -1102 -922 -671 -444 -281 -174 -107 -66 -42 -29 -23 -19 -14 -9 -5 -2 0 3 5	-14 -14 -15 -15 -16	-9188 -9184 -9152 -9172 -9184	-5972 -6012 -6000 -5856 -5960	8352 8284 8248 8360 8416
14986	99	680	0	16	306	1	93	0	0	1	7 10 14 18 23 28 33 39 46 56 67 79 91 104 119 136 154 172 190 208 225 238 248 255 257 258 257 252 241 228 210 187 159 129 98 67 35 1 -32 -64 -93 -121 -145 -165 -180 -191 -198 -204 -208 -210	-16 -16 -16 -15 -15	-9176 -9228 -9216 -9164 -9144	-6028 -6008 -6008 -5988 -5940	8300 8320 8372 8412 8468
14987	99	680	0	16	306	1	93	0	0	0	-208 -205 -203 -200 -197 -194 -189 -182 -177 -174 -171 -168 -165 -164 -163 -163 -163 -160 -156 -153 -154 -154 -155 -154 -153 -151 -150 -152 -153 -154 -155 -156 -156 -158 -159 -159 -158 -156 -154 -155 -154 -154 -156 -158 -158 -157 -155 -153 -152 -151	-14 -13 -12 -12 -12	-9140 -9120 -9196 -9164 -9200	-5928 -5940 -5956 -5964 -5964	8488 8512 8520 8524 8552
14988	99	680	0	16	306	1	93	0	0	0	-150 -148 -146 -145 -145 -144 -141 -138 -135 -132 -128 -125 -122 -118 -115 -111 -106 -102 -101 -103 -105 -109 -113 -116 -117 -117 -119 -121 -125 -128 -128 -127 -127 -126 -124 -125 -126 -127 -126 -124 -116 -96 -59 4 96 201 262 225 77 -168	-12 -12 -13 -13 -14	-9140 -9208 -9160 -9176 -9172	-5984 -5932 -5932 -5956 -6012	8564 8624 8680 8732 8656
14989	99	680	0	16	306	1	93	0	0	0	-758 -955 -1021 -947 -759 -534 -344 -209 -118 -61 -26 -7 4 11 18 25 28 28 28 30 34 39 42 44 45 48 50 54 59 65 73 81 91 101 114 127 142 159 179 198 216 235 253 270 283 291 293 289 281 270	-14 -14 -15 -15 -16	-9164 -9148 -9188 -9160 -9160	-5988 -5964 -5984 -5968 -5980	8748 8828 8748 8792 8860
14990	99	688	0	16	306	1	93	0	0	1	256 238 218 195 168 138 104 70 38 8 -21 -49 -75 -97 -115 -129 -141 -152 -161 -167 -168 -167 -164 -161 -159 -157 -154 -150 -146 -143 -141 -137 -133 -129 -125 -121 -120 -119 -117 -114 -111 -109 -108 -109 -109 -108 -107 -107 -108 -108	-16 -17 -18 -18 -18	-9136 -9176 -9108 -9120 -9124	-5992 -5996 -6012 -6048 -5996	8832 8772 8852 8904 8896
14991	99	688	0	16	306	1	93	0	0	0	-109 -110 -110 -110 -109 -108 -106 -106 -106 -107 -106 -106 -105 -103 -102 -101 -98 -94 -92 -92 -92 -92 -90 -85 -81 -78 -77 -75 -73 -68 -63 -56 -52 -52 -56 -63 -72 -77 -78 -77 -75 -76 -81 -86 -87 -86 -84 -82 -82 -81	-18 -19 -19 -19 -20	-9104 -9084 -9104 -9076 -9088	-5988 -5976 -6000 -6016 -5964	8856 8908 8876 8852 8856
14992	99	688	0	16	306	1	93	0	0	0	-82 -81 -81 -82 -80 -73 -54 -15 52 152 265 320 263 79 -215 -559 -857 -1031 -1042 -899 -658 -414 -229 -107 -32 13 37 48 53 58 64 69 70 70 72 74 75 76 78 80 84 89 95 101 109 117 127 138 149 160	-20 -20 -20 -20 -20	-9072 -9040 -9156 -9144 -9212	-6000 -6076 -5988 -5956 -5952	8856 8808 8808 8868 8804
14993	99	664	0	16	306	1	93	0	0	1	173 188 203 220 238 257 275 293 308 320 328 333 333 329 322 311 297 280 258 229 196 161 125 90 54 18 -16 -46 -71 -91 -107 -119 -129 -137 -144 -149 -151 -149 -146 -142 -137 -134 -129 -125 -123 -122 -118 -114 -109 -105	-19 -19 -20 -22 -25	-9160 -9100 -9060 -9056 -9036	-5960 -6076 -6012 -6048 -6008	8764 8820 8836 8680 8648
14994	99	664	0	16	306	1	93	0	0	0	-101 -100 -98 -96 -94 -93 -93 -93 -91 -90 -89 -88 -88 -89 -91 -93 -95 -95 -95 -94 -93 -89 -86 -83 -81 -83 -85 -85 -86 -85 -84 -83 -82 -82 -81 -79 -78 -77 -76 -76 -76 -75 -73 -69 -65 -60 -58 -58 -56 -52	-29 -33 -39 -48 -65	-9136 -9136 -9136 -9208 -9184	-5996 -5928 -5952 -5936 -5964	8652 8660 8732 8640 8628
14995	99	664	0	16	306	1	93	0	0	0	-45 -39 -35 -36 -41 -47 -53 -56 -59 -60 -59 -60 -64 -69 -72 -72 -69 -66 -65 -62 -60 -60 -60 -62 -64 -61 -48 -20 27 103 198 275 281 185 -21 -319 -633 -862 -942 -859 -657 -426 -241 -119 -42 5 31 45 52 59	-94 -137 -197 -270 -352	-9188 -9128 -9088 -9152 -9176	-5900 -5820 -5788 -5812 -5688	8560 8716 8828 8776 8876
14996	96	680	0	16	306	1	93	0	0	1	68 69 70 73 78 81 84 85 86 89 94 100 106 112 119 126 133 141 153 167 181 194 207 224 244 265 283 298 309 317 323 323 319 312 302 291 278 261 239 213 187 159 130 100 69 40 14 -7 -27 -46	-437 -517 -589 -649 -694	-9204 -9144 -9224 -9268 -9388	-5732 -5640 -5660 -5624 -5684	8696 8804 8872 9096 8976
14997	96	680	0	16	306	1	93	0	0	0	-64 -79 -91 -99 -104 -108 -109 -107 -103 -96 -89 -84 -80 -77 -75 -72 -70 -67 -63 -60 -56 -54 -55 -56 -58 -58 -58 -59 -60 -58 -55 -54 -55 -57 -60 -62 -63 -64 -64 -62 -61 -59 -58 -57 -57 -57 -58 -59 -58 -56	-725 -742 -748 -743 -733	-9468 -9336 -9144 -9040 -8924	-5564 -5480 -5476 -5584 -5616	8996 9032 9180 9308 9464
14998	96	680	0	16	306	1	93	0	0	0	-52 -49 -47 -47 -46 -46 -45 -43 -41 -37 -32 -27 -24 -23 -18 -7 4 11 14 11 3 -6 -12 -19 -23 -23 -21 -21 -24 -26 -26 -26 -25 -24 -24 -22 -17 -13 -10 -9 -4 10 38 82 151 250 353 406 358 190	-721 -708 -695 -681 -665	-9100 -9108 -9084 -9060 -9072	-5716 -5760 -5696 -5744 -5824	9736 9732 9716 9732 9748
14999	96	680	0	16	306	1	93	0	0	0	-90 -424 -706 -847 -827 -668 -439 -231 -86 10 73 109 131 144 150 155 161 167 174 181 187 195 202 206 209 214 222 231 240 247 253 261 273 285 298 310 322 338 356 376 399 423 445 465 482 496 506 513 516 516	-645 -619 -586 -545 -498	-9012 -9064 -9040 -8956 -8912	-5852 -5892 -5892 -5940 -5996	9696 9792 9796 9672 9644
15000	96	668	0	16	306	1	93	0	0	1	512 504 491 474 454 429 401 372 342 313 285 260 237 216 197 179 166 156 149 143 139 137 137 139 142 148 156 167 176 184 190 197 204 209 213 217 220 224 227 231 234 237 238 239 241 244 246 248 250 250	-443 -378 -302 -212 -108	-8856 -8880 -8796 -8776 -8704	-5960 -5944 -6012 -6296 -6436	9644 9508 9436 9424 9516
15001	96	668	0	16	306	1	93	0	0	0	251 252 253 255 256 256 256 257 258 261 262 263 263 264 266 269 272 276 279 285 291 294 297 300 302 309 318 319 316 312 308 302 297 292 287 285 286 289 293 296 296 295 295 296 301 304 300 295 293 299	11 142 281 423 565	-8596 -8608 -8716 -8976 -9112	-6440 -6480 -6616 -6496 -6368	9588 9420 9516 9368 8968
15002	96	668	0	16	306	1	93	0	0	0	317 352 404 479 584 698 759 699 492 155 -231 -549 -709 -694 -531 -285 -46 138 262 337 379 403 415 419 420 423 426 428 432 433 431 429 428 430 435 440 445 449 450 453 459 470 483 496 509 521 536 555 578 599	706 848 998 1161 1338	-9144 -8640 -8876 -10368 -10220	-6040 -5372 -5580 -6036 -5840	8460 8416 8372 8116 7400
15003	96	636	0	16	306	1	93	0	0	1	638 651 659 665 670 672 670 663 648 628 604 576 545 511 476 441 403 361 321 284 252 225 202 181 163 145 129 115 107 104 102 100 97 96 98 100 101 101 101 98 96 95 95 94 94 93 91 89 88 89	1529 1726 1916 2089 2236	-9996 -9216 -8520 -8532 -8688	-5712 -5764 -5676 -5544 -5372	7664 7448 7536 7616 7600
15004	96	636	0	16	306	1	93	0	0	0	89 88 85 83 80 79 78 76 72 67 63 59 58 59 59 57 55 53 53 55 57 58 59 58 56 55 59 65 72 75 72 64 56 47 39 33 31 29 26 20 13 9 9 10 11 12 11 11 11 9	2349 2428 2475 2494 2491	-9116 -8976 -8816 -8780 -9056	-5292 -5540 -5600 -5584 -5804	7552 7532 7524 7568 7652
15005	96	636	0	16	306	1	93	0	0	0	8 7 9 16 34 72 137 231 337 399 364 220 -21 -327 -631 -844 -917 -843 -656 -432 -246 -117 -30 26 60 81 94 102 108 113 120 128 132 136 142 149 155 160 164 167 170 175 179 182 186 190 196 204 214 225	2471 2439 2400 2358 2315	-9332 -9568 -9904 -11256 -10192	-5840 -5872 -5960 -6108 -6604	7672 7488 7848 8344 9776
15006	93	616	0	16	306	2	93	0	0	1	238 254 271 288 306 324 340 353 359 359 353 346 335 322 305 282 256 226 194 162 131 99 66 31 -4 -35 -60 -81 -99 -112 -121 -126 -130 -133 -135 -134 -130 -126 -123 -120 -116 -112 -109 -108 -105 -99 -92 -86 -84 -82	2267 2206 2122 2012 1876	-9924 -9248 -8860 -8140 -8460	-6584 -6392 -6340 -5396 -5252	9376 8960 8700 8412 8212
15007	93	616	0	16	306	2	93	0	0	0	-80 -76 -75 -75 -76 -78 -79 -82 -86 -92 -95 -96 -94 -92 -89 -84 -82 -83 -85 -87 -86 -81 -73 -68 -68 -75 -84 -93 -99 -101 -101 -102 -105 -107 -109 -111 -111 -111 -110 -109 -107 -104 -102 -101 -100 -99 -96 -91 -77 -49	1718 1548 1374 1205 1041	-8168 -7964 -8836 -9244 -9676	-5768 -5752 -5924 -5948 -6084	8208 8188 7964 7732 7712
15008	93	616	0	16	306	2	93	0	0	0	2 82 189 299 345 273 81 -200 -516 -788 -944 -966 -864 -669 -458 -293 -178 -97 -44 -9 13 27 34 39 43 46 48 50 54 56 56 56 58 59 60 63 70 77 86 94 101 109 119 132 146 162 179 198 215 233	886 743 611 490 379	-9860 -9860 -10032 -9976 -10272	-6008 -5784 -5968 -5720 -5424	7512 7428 7600 8228 8800
15009	93	580	0	16	306	2	93	0	0	1	250 264 274 281 283 280 272 258 238 213 185 155 121 84 46 9 -23 -52 -82 -111 -139 -163 -182 -196 -206 -214 -218 -220 -220 -218 -217 -216 -215 -215 -215 -212 -209 -206 -204 -201 -198 -194 -191 -190 -190 -189 -189 -189 -187 -187	275 178 89 7 -67	-10160 -9552 -9664 -9668 -9132	-5080 -4628 -4604 -4948 -5064	8800 8884 8916 8560 8224
15010	93	580	0	16	306	2	93	0	0	0	-186 -186 -186 -184 -180 -176 -174 -174 -173 -170 -164 -156 -149 -146 -148 -156 -168 -181 -191 -197 -200 -204 -207 -211 -217 -222 -224 -225 -224 -222 -221 -221 -221 -220 -219 -218 -217 -214 -203 -180 -135 -60 43 147 195 147 0 -237 -534 -823	-132 -188 -236 -278 -314	-8852 -8456 -8332 -8616 -9104	-5060 -5036 -4864 -5120 -5280	8176 8168 8124 8164 8020
15011	93	580	0	16	306	2	93	0	0	0	-1023 -1087 -1007 -816 -596 -418 -293 -210 -159 -132 -113 -98 -88 -82 -77 -71 -66 -59 -52 -50 -49 -49 -49 -47 -45 -42 -37 -31 -24 -17 -10 -2 9 23 38 58 78 100 122 144 164 183 197 206 212 214 211 205 195 179	-345 -370 -390 -406 -417	-9208 -9328 -9124 -9144 -10916	-5328 -5436 -5480 -5660 -6608	8060 7744 7816 7860 8728
15012	93	564	0	16	306	2	93	0	0	1	159 134 105 73 40 8 -24 -55 -86 -117 -146 -169 -189 -204 -217 -227 -234 -241 -246 -248 -249 -249 -247 -244 -241 -238 -235 -231 -227 -221 -216 -212 -209 -206 -203 -201 -200 -201 -200 -200 -199 -199 -198 -196 -192 -188 -184 -183 -180 -174	-426 -435 -444 -455 -467	-10288 -9796 -9420 -9280 -8648	-5488 -5980 -5804 -5388 -5444	8568 9100 8784 8872 9028
15013	93	564	0	16	306	2	93	0	0	0	-168 -160 -155 -159 -167 -179 -190 -199 -204 -207 -210 -214 -217 -220 -221 -223 -225 -226 -224 -220 -218 -218 -218 -217 -214 -211 -207 -200 -182 -147 -89 -4 103 189 198 100 -105 -397 -723 -987 -1117 -1088 -917 -678 -467 -320 -225 -165 -127 -102	-478 -485 -489 -489 -487	-9064 -9284 -9236 -8856 -8796	-5604 -5620 -5804 -6004 -6040	9024 8912 8848 8860 8920
15014	93	560	0	16	306	2	93	0	0	1	-86 -77 -70 -63 -57 -50 -45 -41 -36 -33 -30 -28 -24 -19 -14 -8 -1 7 17 27 38 51 65 81 101 122 143 164 185 206 226 242 252 257 257 254 247 237 221 200 174 144 110 75 39 4 -32 -64 -93 -119	-483 -478 -472 -465 -458	-8824 -9040 -9108 -9096 -8976	-5924 -5852 -5768 -5796 -5896	8912 8820 8792 8888 8880
15015	93	560	0	16	306	2	93	0	0	0	-143 -165 -183 -196 -206 -212 -218 -222 -223 -221 -219 -218 -216 -213 -207 -200 -191 -181 -174 -168 -162 -157 -151 -145 -140 -138 -138 -137 -133 -127 -120 -115 -109 -105 -103 -100 -98 -94 -89 -83 -79 -81 -85 -90 -95 -100 -106 -112 -115 -119	-450 -441 -434 -426 -418	-9028 -9128 -9776 -9916 -9808	-5884 -5972 -5932 -5632 -5232	8820 8780 8512 8288 8168
15016	94	560	0	16	306	2	93	0	0	0	-122 -122 -122 -123 -122 -122 -123 -123 -121 -121 -121 -123 -125 -125 -120 -106 -79 -35 37 142 255 310 257 88 -180 -500 -794 -989 -1042 -947 -741 -510 -326 -199 -114 -59 -26 -6 5 10 16 24 29 33 36 39 44 49 54 58	-410 -401 -392 -383 -374	-9660 -9160 -9360 -9408 -9352	-4812 -4888 -5028 -4920 -4800	8200 8044 7908 7872 7888
15017	94	548	0	16	306	2	93	0	0	1	68 72 78 86 96 108 120 132 145 162 182 205 227 248 269 291 310 325 335 341 343 342 332 316 294 268 240 209 176 140 101 64 30 -1 -29 -55 -78 -97 -113 -125 -135 -144 -150 -154 -157 -158 -158 -157 -155 -152	-365 -357 -350 -344 -339	-9304 -9220 -9400 -9480 -9524	-4908 -4948 -4980 -5056 -5048	7924 7940 8052 8052 8016
15018	94	548	0	16	306	2	93	0	0	0	-147 -142 -137 -132 -127 -122 -118 -114 -111 -107 -99 -92 -87 -84 -83 -79 -76 -74 -73 -74 -73 -69 -67 -66 -65 -62 -55 -47 -41 -37 -40 -47 -57 -66 -73 -79 -82 -84 -87 -91 -96 -101 -105 -108 -107 -107 -105 -103 -100 -98	-336 -334 -333 -332 -331	-9400 -9416 -9576 -9660 -9340	-5040 -5044 -4996 -5056 -4876	7968 7960 8080 7796 8068
15019	94	548	0	16	306	2	93	0	0	0	-97 -96 -96 -95 -90 -74 -46 6 91 202 291 300 198 -17 -320 -646 -903 -1019 -972 -786 -546 -343 -204 -114 -58 -23 -1 10 16 21 25 28 31 35 38 40 43 47 53 59 64 69 73 78 86 96 110 126 142 158	-330 -329 -328 -328 -328	-9372 -9416 -9384 -9516 -9392	-4924 -5052 -5100 -5060 -4980	8020 7872 7828 7660 7828
15020	94	564	0	16	306	2	93	0	0	1	175 193 214 234 254 274 294 311 322 329 332 331 325 317 304 285 264 240 210 176 141 106 70 37 5 -24 -48 -68 -87 -104 -117 -128 -136 -141 -144 -146 -147 -147 -144 -142 -138 -132 -128 -124 -119 -114 -108 -102 -96 -92	-326 -325 -322 -318 -314	-9360 -9448 -9424 -9364 -9304	-4860 -4876 -4916 -5056 -5060	7776 7668 7856 8036 7764
15021	94	564	0	16	306	2	93	0	0	0	-89 -88 -85 -83 -81 -79 -78 -77 -75 -74 -74 -72 -71 -69 -65 -60 -55 -51 -50 -53 -55 -54 -49 -40 -32 -32 -38 -45 -52 -58 -65 -70 -73 -75 -77 -81 -85 -86 -88 -90 -91 -90 -88 -84 -81 -78 -76 -75 -74 -67	-310 -306 -302 -298 -294	-9172 -9292 -9280 -9492 -9464	-5088 -5144 -5184 -5236 -5296	7652 7812 7768 7720 7688
15022	94	564	0	16	306	2	93	0	0	0	-49 -15 41 127 229 297 284 162 -75 -391 -699 -905 -955 -844 -622 -393 -223 -115 -46 -2 26 42 49 53 58 62 65 67 69 73 78 81 84 88 91 94 98 105 114 121 129 136 145 156 169 185 204 224 245 268	-289 -286 -282 -279 -275	-9396 -9372 -9340 -9280 -9356	-5280 -5328 -5316 -5412 -5360	7716 7652 7752 7752 7776
15023	94	576	0	16	306	2	93	0	0	1	288 305 318 328 334 335 332 324 313 301 287 268 242 211 179 146 113 79 46 14 -17 -46 -70 -92 -106 -114 -123 -134 -142 -150 -155 -156 -156 -155 -152 -148 -143 -138 -134 -130 -126 -120 -115 -109 -105 -102 -100 -96 -95 -93	-272 -269 -266 -263 -262	-9444 -9380 -9348 -9308 -9312	-5304 -5268 -5252 -5268 -5240	7756 7752 7676 7644 7572
15024	94	576	0	16	306	1	93	0	0	0	-87 -86 -86 -84 -83 -82 -80 -80 -80 -77 -73 -71 -71 -70 -66 -61 -56 -52 -55 -61 -69 -79 -88 -95 -99 -100 -99 -98 -99 -100 -102 -105 -105 -105 -103 -100 -99 -100 -101 -101 -99 -92 -79 -55 -12 60 162 266 310 249	-264 -267 -271 -274 -278	-9568 -9468 -9372 -9160 -9200	-5308 -5376 -5512 -5392 -5432	7628 7624 7688 7816 7772
15025	94	576	0	16	306	1	93	0	0	0	78 -185 -493 -764 -921 -939 -823 -618 -408 -248 -139 -64 -18 9 27 38 45 52 60 66 70 73 75 76 77 78 80 82 86 92 100 106 115 124 134 146 158 171 186 202 222 244 265 285 304 320 333 342 346 344	-280 -280 -277 -273 -267	-9276 -9332 -9360 -9368 -9272	-5428 -5480 -5468 -5500 -5512	7832 7744 7692 7548 7548
15026	100	576	0	16	306	1	93	0	0	1	340 332 318 299 277 253 227 197 165 131 99 72 48 24 1 -20 -38 -51 -60 -67 -68 -67 -69 -70 -69 -66 -61 -54 -47 -40 -32 -21 -10 -2 3 9 16 21 27 34 40 45 48 49 52 56 61 64 64 64	-261 -254 -247 -241 -235	-9284 -9248 -9272 -9276 -9112	-5512 -5468 -5440 -5452 -5380	7608 7612 7576 7548 7556
15027	100	576	0	16	306	1	93	0	0	0	66 69 73 78 84 90 97 101 101 102 107 116 124 131 131 130 128 124 119 113 108 107 108 111 112 113 116 121 128 133 137 142 149 154 156 155 155 160 178 209 258 335 440 535 558 474 276 -18 -346 -616	-229 -223 -217 -211 -206	-9204 -9304 -9136 -9248 -9172	-5376 -5524 -5220 -5164 -5040	7576 7308 7636 7616 7632
15028	100	576	0	16	306	1	93	0	0	0	-755 -731 -559 -313 -87 79 189 260 305 331 347 356 363 369 373 375 378 383 387 391 395 401 409 416 421 426 431 440 451 461 470 482 496 513 533 555 575 594 614 632 650 666 678 682 683 682 678 670 658 641	-200 -195 -188 -181 -174	-9436 -9580 -9508 -9536 -9444	-5000 -4624 -4312 -4136 -4036	7536 7812 7912 7904 7908
15029	100	584	0	16	306	1	93	0	0	1	621 597 568 536 502 467 432 399 367 336 304 277 258 247 239 232 226 221 219 218 216 214 213 215 219 223 226 232 236 238 241 246 251 255 258 261 261 262 265 266 265 265 266 267 269 271 271 270 269 269	-165 -158 -152 -147 -144	-9608 -9496 -9472 -9448 -9284	-4256 -4432 -4312 -4264 -4228	7992 7860 7724 7852 7780
15030	100	584	0	16	306	2	93	0	0	0	269 271 276 282 286 284 279 277 283 292 300 303 299 292 283 274 264 256 250 247 243 237 232 229 228 228 228 227 225 223 222 221 220 221 224 229 242 268 319 403 511 594 595 492 285 -11 -338 -609 -752 -731	-143 -142 -141 -141 -141	-9380 -9612 -9608 -10064 -9576	-4296 -4432 -4440 -4580 -5744	7944 7848 7888 8264 8644
15031	100	592	0	16	306	2	93	0	0	1	-298 -73 86 188 248 284 306 317 318 317 319 325 328 331 332 329 326 325 327 328 328 329 329 332 336 341 347 354 360 367 376 388 403 420 435 448 461 476 489 495 495 490 481 473 462 449 434 414 386 352	-143 -146 -152 -158 -164	-9912 -9388 -9400 -8948 -8668	-6432 -6440 -6420 -6104 -5960	9160 8784 8820 8296 8232
15032	100	592	0	16	306	2	93	0	0	0	316 281 249 217 185 150 117 88 68 51 36 23 10 0 -5 -6 -6 -5 -5 -6 -6 -4 -1 0 2 3 5 9 12 12 11 13 17 21 25 30 30 28 27 26 25 25 24 22 21 21 21 19 19 16	-169 -171 -172 -170 -168	-8364 -8144 -8376 -8976 -9232	-5784 -5792 -5864 -6104 -6132	8360 8240 8136 8360 8024
15033	100	592	0	16	306	2	93	0	0	0	13 13 15 17 20 22 22 20 19 21 29 40 48 46 38 28 20 16 13 13 14 10 5 1 -1 0 0 0 0 0 3 6 5 3 1 2 10 29 57 104 183 284 369 390 297 76 -224 -512 -690 -713	-165 -159 -153 -146 -137	-9220 -9160 -9188 -9736 -10408	-6096 -5728 -5876 -5704 -5432	7852 8136 7952 7828 8952
15034	100	592	0	16	306	2	93	0	0	0	-592 -393 -203 -71 10 60 90 114 132 142 149 156 161 164 167 173 178 179 176 175 176 179 180 178 176 178 183 190 195 200 208 219 232 245 260 275 291 306 318 327 335 341 346 348 342 333 320 303 284 265	-126 -117 -112 -111 -112	-10116 -10348 -11216 -10040 -9612	-4292 -4744 -5792 -5876 -5952	9388 9288 8832 8652 8808
15035	100	608	0	16	306	2	93	0	0	1	243 218 190 162 131 100 71 44 21 1 -19 -35 -49 -61 -70 -79 -86 -92 -95 -98 -99 -98 -96 -92 -87 -83 -80 -75 -70 -67 -65 -64 -65 -66 -66 -64 -62 -63 -67 -70 -70 -68 -68 -68 -71 -75 -79 -82 -84 -81	-117 -122 -125 -126 -126	-8740 -8288 -8028 -7964 -8780	-5392 -5536 -5540 -5024 -4904	8600 8912 9072 9236 9400
15036	103	608	0	16	306	2	93	0	0	0	-76 -72 -72 -74 -74 -72 -71 -71 -69 -62 -52 -42 -36 -35 -39 -48 -55 -63 -68 -69 -69 -71 -74 -76 -78 -81 -81 -82 -82 -83 -82 -81 -82 -84 -85 -85 -79 -69 -51 -17 48 140 227 255 184 5 -251 -516 -700 -751	-125 -123 -120 -115 -108	-8860 -9096 -9724 -10268 -10444	-4900 -4860 -5420 -5548 -5600	9208 9248 9372 8508 8704
15037	103	608	0	16	306	2	93	0	0	0	-675 -508 -321 -179 -96 -52 -28 -15 -3 6 8 9 13 17 20 23 26 30 32 33 33 31 32 35 36 39 43 48 53 59 68 77 88 102 119 136 152 169 183 193 202 211 216 217 215 209 200 188 172 153	-102 -96 -90 -86 -84	-10160 -9588 -9056 -8428 -8532	-5836 -6156 -6540 -6412 -6268	8680 8868 8824 8832 8696
15038	103	600	0	16	306	2	93	0	0	1	109 82 54 24 -6 -34 -58 -81 -104 -122 -138 -150 -159 -168 -175 -181 -184 -185 -183 -179 -174 -171 -170 -169 -165 -160 -154 -151 -148 -145 -143 -142 -142 -143 -142 -141 -141 -141 -139 -138 -138 -141 -147 -153 -155 -155 -152 -150 -152 -154	-82 -80 -78 -75 -72	-8592 -8532 -8356 -8508 -8704	-6136 -6140 -6380 -6640 -6920	8560 8352 8312 8424 8472
15039	103	600	0	16	306	2	93	0	0	0	-156 -156 -155 -153 -152 -153 -155 -155 -153 -145 -135 -125 -119 -120 -128 -137 -146 -150 -151 -150 -150 -152 -154 -155 -156 -157 -160 -162 -162 -160 -157 -155 -158 -161 -163 -160 -151 -135 -108 -60 23 133 228 254 157 -73 -384 -686 -880 -918	-68 -64 -60 -58 -56	-8916 -9744 -10248 -11432 -11232	-6960 -6664 -6092 -4960 -3716	8528 8920 8972 9056 9336
15040	103	600	0	16	306	2	93	0	0	0	-805 -595 -385 -235 -147 -99 -70 -49 -34 -28 -26 -23 -17 -16 -18 -14 -6 0 3 3 1 -1 -3 -3 0 6 14 21 29 38 46 56 68 80 93 108 123 136 149 162 171 176 177 173 167 159 149 134 117 97	-56 -59 -64 -70 -75	-10652 -9832 -9504 -9272 -9112	-3732 -3284 -3548 -3868 -4128	9268 8976 8644 8592 8584
15041	103	604	0	16	306	2	93	0	0	1	76 51 24 -4 -30 -55 -79 -105 -131 -155 -175 -193 -209 -222 -232 -237 -243 -248 -252 -252 -250 -246 -240 -234 -226 -219 -215 -213 -209 -205 -202 -200 -199 -196 -192 -189 -187 -188 -189 -190 -192 -195 -196 -196 -196 -196 -195 -195 -194 -193	-81 -86 -90 -94 -97	-8660 -8348 -8360 -8920 -9144	-4612 -4548 -4660 -4716 -5016	8240 8048 8156 8052 8076
15042	103	604	0	16	306	2	93	0	0	0	-190 -187 -186 -187 -189 -190 -186 -178 -171 -167 -169 -176 -184 -191 -195 -199 -200 -203 -206 -206 -206 -207 -208 -211 -213 -211 -209 -208 -208 -208 -208 -207 -205 -201 -190 -165 -121 -48 52 149 187 135 -6 -232 -517 -794 -986 -1052 -981 -804	-100 -102 -103 -104 -105	-9420 -9456 -9560 -10232 -10476	-5316 -5424 -5568 -5840 -6300	8068 7872 8072 7928 8516
15043	103	588	0	16	306	2	93	0	0	1	-593 -416 -289 -199 -143 -110 -86 -68 -59 -56 -52 -46 -43 -42 -34 -25 -21 -23 -29 -33 -36 -39 -42 -44 -43 -41 -37 -33 -25 -15 -3 10 26 42 62 82 101 121 139 152 163 172 175 174 169 158 143 125 104 77	-106 -105 -104 -101 -97	-9168 -8836 -8424 -8756 -9592	-6080 -5712 -5456 -5348 -5608	9224 8832 8612 8660 8604
15044	103	588	0	16	306	2	93	0	0	0	49 21 -11 -43 -74 -102 -127 -149 -169 -188 -202 -210 -215 -220 -224 -226 -228 -230 -230 -229 -226 -220 -216 -213 -211 -207 -200 -193 -188 -184 -180 -177 -173 -168 -165 -163 -162 -162 -161 -160 -159 -159 -159 -157 -156 -154 -152 -150 -148 -147	-90 -80 -70 -60 -52	-9676 -9176 -8816 -8476 -8268	-6024 -6728 -6492 -6088 -6040	8572 8552 8516 9060 8996
15045	103	588	0	16	306	2	93	0	0	0	-148 -151 -149 -144 -139 -133 -134 -139 -144 -148 -151 -155 -159 -163 -163 -162 -164 -170 -173 -172 -170 -166 -163 -162 -160 -158 -156 -153 -148 -137 -117 -82 -24 68 190 290 303 191 -45 -368 -699 -949 -1061 -1017 -838 -597 -382 -232 -137 -78	-49 -47 -46 -44 -41	-8340 -9692 -9324 -8868 -8932	-6080 -6636 -6324 -6324 -6192	9084 8824 8724 8556 8220
15046	103	588	0	16	306	2	93	0	0	1	-42 -17 -2 3 6 11 16 20 23 26 29 31 33 35 38 40 44 50 57 64 71 80 92 105 118 130 144 159 178 200 221 242 261 277 289 298 302 299 293 285 273 256 235 207 173 138 104 71 37 3	-39 -37 -35 -36 -36	-9276 -9492 -9332 -9404 -9400	-6064 -5744 -5896 -5764 -5392	8152 7848 7900 8072 7916
15047	103	588	0	16	306	2	93	0	0	0	-30 -61 -86 -105 -122 -136 -149 -161 -170 -174 -176 -177 -178 -179 -177 -170 -161 -151 -144 -139 -132 -127 -122 -117 -114 -111 -107 -104 -102 -101 -100 -98 -97 -98 -99 -102 -102 -100 -98 -98 -95 -91 -89 -88 -87 -87 -83 -77 -72 -73	-36 -36 -35 -35 -35	-9556 -9660 -9264 -9112 -9056	-4872 -5112 -5368 -5560 -5468	8012 7836 7652 7796 7700
15048	103	588	0	16	306	2	93	0	0	0	-78 -84 -93 -102 -109 -113 -115 -116 -117 -117 -118 -119 -122 -123 -123 -122 -120 -118 -117 -115 -113 -112 -107 -97 -79 -51 -3 80 185 265 271 175 -34 -332 -655 -905 -1012 -953 -755 -509 -310 -179 -95 -44 -12 10 25 34 41 47	-37 -39 -40 -42 -42	-9328 -9432 -9320 -9224 -9184	-4920 -4868 -5068 -5252 -5360	7468 7452 7472 7520 7500
15049	103	572	0	16	306	2	93	0	0	1	52 56 58 59 61 63 66 71 77 82 86 92 100 108 116 124 133 146 160 174 188 204 221 239 258 276 291 304 316 324 327 326 320 310 295 276 252 225 194 162 128 92 57 23 -7 -35 -59 -79 -97 -114	-42 -43 -43 -43 -42	-9568 -9228 -9084 -9360 -9236	-5332 -5496 -5552 -5560 -5476	7440 7408 7480 7296 7372
15050	103	572	0	16	306	2	93	0	0	0	-127 -137 -145 -149 -151 -153 -153 -151 -147 -143 -138 -134 -130 -126 -120 -115 -111 -108 -104 -99 -94 -89 -86 -86 -84 -80 -78 -78 -78 -80 -79 -77 -77 -79 -81 -83 -83 -81 -80 -81 -80 -77 -73 -69 -67 -67 -70 -70 -66 -58	-42 -41 -40 -40 -41	-9224 -9460 -9516 -9704 -9444	-5416 -5268 -5080 -5048 -5148	7352 7384 7520 7724 7964
15051	103	572	0	16	306	2	93	0	0	0	-48 -41 -41 -46 -55 -65 -76 -85 -89 -90 -91 -93 -95 -98 -101 -103 -103 -102 -99 -97 -95 -97 -99 -101 -104 -100 -84 -50 9 101 215 298 298 189 -36 -350 -688 -955 -1082 -1043 -852 -593 -367 -212 -113 -48 -2 32 54 64	-44 -48 -52 -57 -59	-9240 -8876 -7288 -8520 -11156	-5284 -5296 -5256 -5360 -6468	8024 7932 8036 8208 7268
15052	103	608	0	16	306	2	93	0	0	1	76 88 96 99 98 97 95 97 101 107 115 122 128 135 141 144 147 152 161 170 180 192 208 225 243 264 284 303 321 336 346 353 355 354 349 340 328 316 299 274 241 207 177 146 108 66 28 -5 -41 -81	-58 -55 -50 -43 -34	-8948 -8480 -9448 -9264 -8864	-4836 -6156 -6348 -5952 -5564	7496 7736 6828 7240 7544
15053	103	608	0	16	306	2	93	0	0	0	-107 -103 -77 -46 -27 -21 -21 -21 -23 -33 -36 -22 -15 -31 -64 -93 -92 -64 -37 -29 -25 -22 -17 -7 -2 -2 -3 -3 0 4 -8 -28 -41 -48 -46 -33 -21 -21 -23 -19 -12 -10 -9 -10 -11 -10 -5 4 13 22	-26 -20 -18 -21 -27	-8216 -5396 -6344 -8348 -16084	-5028 -3408 -4244 -5604 -5616	7796 8284 7804 7504 9768
15054	103	608	0	16	306	2	93	0	0	0	38 66 106 153 200 236 253 253 244 233 229 228 227 225 220 216 216 215 212 203 188 173 166 173 197 243 316 412 486 468 340 126 -153 -461 -734 -910 -961 -875 -686 -476 -311 -196 -114 -58 -26 -2 16 22 15 9	-34 -44 -49 -50 -52	-12600 -13700 -11160 -8016 -6292	-11980 -5476 -6588 -5440 -4348	8136 6292 7436 8648 8804
15055	103	592	0	16	306	2	93	0	0	1	13 15 14 16 21 20 21 26 31 37 46 53 59 64 71 82 93 107 125 145 163 183 207 237 271 303 332 355 370 379 380 379 384 397 416 438 456 463 454 429 389 338 288 250 224 198 169 145 131 122	-59 -66 -75 -83 -91	-4928 -6096 -10808 -14208 -13828	-5068 -6380 -7868 -5560 -8808	9576 8344 11096 10876 10736
15056	102	592	0	16	306	3	93	0	0	0	113 111 122 130 132 115 65 6 -40 -69 -77 -65 -40 -19 -11 -14 -20 -26 -31 -37 -51 -73 -96 -110 -111 -103 -96 -97 -105 -115 -124 -129 -126 -112 -98 -93 -93 -96 -98 -95 -96 -103 -111 -118 -124 -131 -140 -143 -143 -147	-92 -83 -69 -56 -41	-11900 -10152 -7172 -5672 -4212	-5868 -4392 -4016 -3516 -2000	9368 8684 8588 8236 8976
15057	102	592	0	16	306	3	93	0	0	0	-149 -151 -151 -146 -137 -128 -119 -111 -107 -105 -103 -99 -86 -58 -6 77 182 274 295 209 20 -265 -605 -905 -1080 -1100 -976 -756 -521 -326 -180 -72 -1 48 96 142 178 201 214 221 228 234 240 247 255 260 259 249 233 213	-29 -24 -20 -18 -20	-5024 -6600 -10212 -17084 -14184	-3364 -3820 -4908 -5504 -6960	8184 7564 7768 7924 7600
15058	102	560	0	16	306	3	93	0	0	1	191 193 208 227 240 243 234 218 203 190 177 170 174 187 203 220 237 256 274 286 290 289 282 268 249 223 187 144 101 63 28 -3 -27 -51 -72 -87 -97 -105 -112 -113 -105 -96 -86 -74 -64 -58 -46 -36 -37 -41	-21 -19 -20 -27 -35	-10300 -8112 -3556 -3472 -3524	-6340 -5672 -3788 -4104 -5856	7860 8536 8924 9160 8752
15059	102	560	0	16	306	3	93	0	0	0	-46 -52 -52 -50 -48 -46 -42 -33 -20 -5 12 26 38 49 72 128 227 366 532 697 837 926 960 956 936 905 868 828 787 747 711 674 631 591 557 528 501 473 448 419 380 336 292 252 216 180 143 108 77 54	-43 -48 -49 -46 -33	-5460 -24896 -17120 -13404 -9628	-7020 -12604 -8608 -6664 -6312	7868 8784 8136 8076 8712
15060	102	560	0	16	306	3	93	0	0	0	45 56 92 158 261 375 439 405 267 25 -306 -660 -935 -1057 -1014 -833 -578 -330 -131 21 128 184 211 232 244 246 254 265 265 255 246 244 250 255 254 254 255 255 253 254 264 277 286 291 300 312 327 337 339 342	-17 -8 -4 -1 -1	-7560 -3208 -3376 -4756 -5568	-3908 -2416 -3912 -4180 -4368	8560 8860 8632 8252 8580
15061	102	560	0	16	306	3	93	0	0	1	357 385 423 460 496 547 619 697 770 840 898 947 988 1017 1030 1024 1002 964 915 867 819 773 725 676 631 590 551 515 484 456 426 393 364 339 318 297 277 260 247 234 224 216 208 207 209 206 201 201 204 206	-3 -7 -15 -23 -32	-12004 -16808 -15644 -11832 -8200	-3928 -5468 -6432 -5540 -6300	7612 8088 6976 7448 8080
15062	102	560	0	16	306	3	93	0	0	0	204 200 198 200 206 213 220 223 219 214 206 194 183 172 163 156 151 138 123 114 113 120 126 123 114 109 107 109 113 108 98 92 87 83 91 127 194 290 404 512 573 554 447 245 -52 -379 -626 -723 -662 -471	-47 -64 -77 -82 -77	-4236 -3108 -3152 -6080 -13748	-5260 -4800 -4460 -4808 -11300	8932 8872 8676 8324 10216
15063	102	536	0	16	306	3	93	0	0	1	-224 -4 152 257 322 351 367 383 391 385 378 378 380 379 376 373 364 349 335 328 326 322 318 318 319 318 310 304 306 318 337 356 374 395 424 454 479 502 525 546 564 579 589 590 580 560 535 511 492 468	-66 -50 -27 -5 9	-15744 -14192 -10480 -5316 -4168	-6320 -7952 -6848 -2952 -2480	8404 7804 7984 9020 8852
15064	102	536	0	16	306	3	93	0	0	0	430 379 328 282 240 203 165 124 90 62 36 13 -2 -11 -21 -32 -42 -47 -47 -46 -45 -46 -45 -43 -40 -33 -27 -24 -20 -15 -7 3 13 19 23 33 51 69 91 125 162 186 199 202 197 191 189 187 179 174	16 21 23 23 18	-4084 -4624 -6328 -16776 -16744	-2840 -3244 -3856 -5572 -4756	8980 8216 8396 7588 7668
15065	102	536	0	16	306	3	93	0	0	0	165 160 156 160 166 169 169 166 159 149 133 112 91 67 46 32 34 67 134 234 340 388 333 187 -39 -335 -656 -921 -1065 -1064 -924 -704 -488 -326 -210 -134 -99 -82 -66 -53 -43 -33 -19 -5 1 0 3 11 16 19	11 5 -1 -13 -26	-15844 -11072 -5092 -3768 -3164	-6816 -5900 -5776 -4272 -4516	6496 7252 8892 9084 8844
15066	103	524	0	16	306	3	93	0	0	1	24 29 33 38 45 55 62 64 64 60 63 80 107 143 183 219 252 284 314 336 351 358 358 357 354 350 347 349 356 361 358 337 297 248 200 156 126 107 91 75 60 48 36 21 6 -2 -7 -16 -25 -35	-39 -49 -53 -53 -48	-3204 -9056 -15216 -15644 -16320	-5500 -6652 -6780 -9784 -8872	8264 9404 7592 7728 7304
15067	103	524	0	16	306	3	93	0	0	0	-47 -52 -55 -63 -79 -94 -108 -116 -118 -115 -115 -114 -107 -93 -78 -67 -69 -82 -98 -113 -122 -129 -131 -129 -126 -127 -129 -128 -126 -124 -120 -117 -119 -114 -86 -25 77 215 354 426 397 265 10 -375 -810 -1159 -1333 -1303 -1094 -810	-35 -20 -11 -7 -6	-12308 -6340 -4060 -3048 -4840	-6308 -3128 -2880 -3112 -4272	8100 8612 8880 8872 8120
15068	103	476	0	16	306	3	93	0	0	1	-562 -379 -242 -154 -104 -64 -26 -4 5 15 30 44 49 50 56 67 83 127 216 329 439 531 596 641 678 708 722 722 716 713 712 710 707 702 700 698 693 689 677 654 630 609 580 539 489 430 370 311 255 196	-8 -11 -16 -25 -31	-6776 -23132 -16364 -17468 -12732	-3416 -5424 -3352 -5740 -6408	7828 5628 6876 6676 6464
15069	103	476	0	16	306	3	93	0	0	0	136 82 35 -9 -48 -82 -113 -144 -167 -183 -200 -216 -235 -263 -288 -305 -311 -302 -278 -250 -228 -211 -195 -181 -173 -168 -161 -151 -136 -118 -111 -120 -126 -125 -121 -117 -109 -102 -97 -90 -79 -67 -52 -38 -35 -44 -60 -78 -93 -103	-35 -42 -51 -56 -56	-5568 -3544 -3340 -3876 -6788	-5608 -4488 -3756 -5428 -6016	8676 8864 8564 8436 8864
15070	103	476	0	16	306	3	93	0	0	0	-105 -98 -88 -78 -70 -64 -59 -48 -30 -4 35 84 134 182 226 253 261 263 263 269 283 311 356 426 529 660 772 799 699 468 146 -195 -467 -614 -637 -552 -400 -237 -106 -17 33 56 63 69 73 70 66 69 75 79	-52 -43 -33 -19 -4	-12508 -15968 -18220 -10652 -7740	-7552 -6752 -10100 -6404 -3704	7800 10696 6372 8632 8808
15071	103	544	0	16	306	3	93	0	0	1	80 80 79 81 83 81 78 78 76 79 89 101 112 123 138 161 184 204 224 244 263 281 294 306 319 335 347 354 355 348 339 328 309 284 255 218 174 126 77 27 -18 -57 -93 -124 -152 -174 -191 -204 -211 -212	6 9 10 10 9	-4816 -4408 -4212 -5596 -7708	-2608 -2936 -3816 -3880 -4332	8304 8900 8528 8080 7576
15072	103	544	0	16	306	3	93	0	0	0	-191 -156 -93 -6 87 167 227 274 315 348 368 372 368 364 360 355 345 330 316 307 300 290 273 251 223 194 169 142 106 62 20 -21 -58 -90 -117 -139 -159 -174 -182 -190 -195 -199 -207 -218 -225 -226 -227 -234 -242 -237	9 5 -3 -8 -15	-28608 -15608 -12028 -8768 -6304	-4400 -6584 -6776 -6340 -4996	11848 8120 7224 7784 8748
15073	103	544	0	16	306	3	93	0	0	0	-203 -142 -55 58 180 274 288 204 15 -284 -658 -1009 -1239 -1303 -1206 -994 -754 -548 -387 -267 -195 -156 -119 -79 -50 -36 -30 -32 -45 -63 -71 -66 -55 -41 -25 -10 5 22 46 80 133 224 339 453 557 642 702 748 784 805	-26 -38 -47 -53 -56	-4048 -3704 -3468 -6192 -26836	-4152 -5252 -6984 -6360 -14380	9212 8504 8908 8156 15816
15074	103	524	0	16	306	3	93	0	0	1	818 827 826 812 797 792 791 780 763 738 698 647 590 523 450 383 319 245 168 99 34 -27 -74 -107 -134 -153 -167 -187 -213 -230 -233 -229 -221 -209 -197 -188 -180 -178 -180 -179 -172 -156 -138 -125 -117 -118 -130 -131 -114 -95	-54 -45 -25 -5 9	-15172 -12004 -9316 -5660 -4516	-6940 -6572 -5232 -2132 -2488	9368 6844 9044 8804 8200
15075	103	524	0	16	306	3	93	0	0	0	-83 -83 -95 -105 -107 -105 -110 -120 -129 -140 -156 -179 -205 -221 -226 -224 -221 -224 -233 -243 -245 -240 -229 -218 -208 -197 -177 -141 -80 11 132 271 373 388 306 131 -111 -364 -556 -637 -597 -440 -221 -17 131 227 285 318 339 350	19 28 32 33 28	-4932 -5332 -6296 -12148 -16824	-3620 -4036 -4668 -5800 -4776	9984 8108 7884 6896 6224
15076	109	508	0	16	306	3	93	0	0	1	349 341 334 328 313 285 252 225 201 167 129 97 75 62 54 44 34 29 29 38 49 56 62 71 83 94 104 119 137 155 169 177 179 179 185 192 189 177 156 124 91 63 34 1 -32 -65 -94 -121 -148 -174	18 9 -2 -18 -34	-13240 -9616 -6368 -5076 -3024	-6016 -5548 -6404 -4976 -5212	7660 7496 8816 8996 8636
15077	109	508	0	16	306	3	93	0	0	0	-195 -210 -222 -231 -237 -240 -239 -233 -228 -224 -218 -210 -202 -192 -183 -171 -152 -125 -94 -64 -41 -32 -30 -27 -16 9 48 88 120 139 145 148 148 150 157 163 165 162 151 137 120 103 84 65 45 22 -6 -31 -54 -77	-47 -54 -53 -45 -29	-3216 -6960 -11976 -17324 -15788	-6536 -6788 -9688 -8056 -6600	7900 8388 8272 7044 6876
15078	109	508	0	16	306	3	93	0	0	0	-100 -124 -144 -155 -150 -122 -73 7 128 272 390 425 339 115 -241 -664 -1024 -1222 -1232 -1070 -816 -574 -385 -244 -142 -81 -44 -11 10 18 25 39 53 65 75 81 75 60 45 41 47 52 53 44 24 13 30 66 99 114	-6 14 23 25 25	-10408 -7512 -4760 -3988 -4532	-6224 -3636 -3384 -3512 -3252	8264 9028 8956 8864 8452
15079	109	512	0	16	306	3	93	0	0	1	175 221 266 296 308 321 343 360 359 348 342 352 379 424 479 534 574 592 596 590 567 530 487 439 390 341 291 242 198 157 118 90 69 45 13 -29 -67 -93 -111 -121 -130 -142 -154 -161 -159 -145 -123 -109 -104 -101	23 20 18 15 12	-6668 -11696 -16268 -14036 -10088	-4224 -5820 -3580 -7004 -6112	7760 8092 6960 6228 8300
15080	109	512	0	16	306	3	93	0	0	0	-92 -79 -71 -71 -82 -101 -121 -141 -159 -170 -181 -201 -221 -231 -231 -225 -219 -217 -227 -240 -243 -242 -243 -235 -219 -207 -201 -195 -191 -183 -155 -102 -28 68 178 254 240 136 -29 -260 -555 -859 -1086 -1179 -1103 -889 -630 -408 -246 -133	5 -9 -25 -38 -46	-6268 -4328 -3364 -2504 -6040	-5744 -4420 -4552 -6152 -5900	8328 8796 8592 9064 8480
15081	109	504	0	16	306	3	93	0	0	1	-66 -36 -18 2 27 67 129 200 257 299 340 385 422 452 477 498 511 514 508 494 479 471 468 467 466 466 466 466 470 480 494 509 512 496 474 447 417 388 358 319 277 242 211 179 156 133 89 37 -1 -21	-47 -41 -32 -18 -3	-21712 -15136 -17556 -13628 -9840	-11752 -10304 -10424 -6492 -3740	9628 9056 7692 6520 8236
15082	109	504	0	16	306	3	93	0	0	0	-27 -32 -50 -79 -109 -133 -155 -179 -203 -216 -224 -235 -245 -246 -242 -240 -234 -220 -207 -202 -190 -167 -147 -140 -142 -147 -154 -157 -156 -163 -173 -172 -161 -159 -174 -193 -210 -224 -236 -246 -252 -259 -268 -275 -277 -274 -266 -257 -248 -235	6 10 15 16 14	-4052 -4184 -5604 -4660 -9704	-2116 -3748 -3008 -2876 -6336	8364 8132 8948 8384 6596
15083	109	504	0	16	306	3	93	0	0	0	-215 -189 -160 -130 -95 -56 -5 64 157 275 392 446 387 219 -27 -321 -620 -862 -1007 -1039 -954 -792 -614 -461 -340 -257 -206 -168 -134 -109 -97 -89 -80 -70 -56 -42 -35 -34 -40 -51 -57 -60 -61 -65 -67 -63 -53 -41 -26 -14	12 9 8 9 5	-17344 -16408 -13960 -9032 -4184	-7716 -5668 -5712 -5924 -5328	4884 4036 5584 8168 7620
15084	109	500	0	16	306	3	93	0	0	1	-5 9 29 58 90 122 153 178 192 199 205 212 222 233 235 229 221 210 196 175 146 112 76 37 -5 -48 -92 -132 -161 -178 -187 -191 -195 -198 -198 -195 -188 -175 -156 -134 -106 -69 -23 24 74 124 167 200 222 236	-3 -10 -13 -13 -11	-3064 -3832 -10104 -15396 -16392	-5868 -6596 -6364 -9916 -7308	9192 8988 9428 8676 8368
15085	109	500	0	16	306	3	93	0	0	0	250 261 270 278 278 268 253 229 205 182 163 146 121 89 57 29 4 -14 -24 -28 -28 -30 -32 -28 -17 -3 7 8 -1 -16 -26 -22 7 71 173 308 455 557 558 462 302 77 -227 -560 -824 -954 -918 -739 -507 -309	-6 1 9 13 12	-15472 -8316 -5052 -3684 -4072	-9568 -4164 -3156 -2600 -3948	6724 8580 8696 9008 8296
15086	115	508	0	16	306	3	93	0	0	1	-29 50 89 118 133 127 117 115 128 142 148 151 157 162 167 175 183 182 177 175 181 198 220 236 245 249 265 313 415 579 754 891 980 1029 1054 1069 1069 1050 1022 993 958 916 868 815 759 695 629 571 521 475	11 8 3 -1 -8	-4976 -6776 -29156 -16124 -16692	-3560 -4600 -7380 -5448 -5748	8196 7300 15368 10128 5912
15087	115	508	0	16	306	3	93	0	0	0	422 360 297 244 204 175 147 113 75 39 8 -15 -31 -44 -55 -59 -58 -55 -54 -54 -58 -60 -55 -44 -41 -42 -37 -26 -16 -14 -21 -30 -33 -25 -17 -19 -25 -32 -41 -50 -55 -53 -46 -41 -39 -41 -45 -48 -55 -66	-14 -15 -19 -29 -40	-9376 -4636 -3224 -3808 -4200	-6736 -5808 -4352 -4356 -5968	8040 8888 8992 8676 8288
15088	115	508	0	16	306	3	93	0	0	0	-78 -83 -77 -59 -32 -4 39 119 238 378 478 468 341 116 -187 -510 -762 -867 -795 -565 -264 10 219 372 479 540 570 581 577 565 551 539 526 512 500 489 479 470 461 454 457 462 458 445 426 406 398 397 390 375	-48 -54 -56 -55 -49	-7184 -27204 -13944 -16608 -10576	-6124 -14728 -8616 -10396 -3952	8244 11448 8796 6868 8588
15089	115	496	0	16	306	3	93	0	0	1	359 350 350 352 358 370 384 402 417 418 412 405 399 395 382 356 323 287 241 196 155 113 73 39 7 -25 -55 -79 -104 -126 -141 -160 -185 -204 -215 -215 -206 -195 -182 -165 -153 -152 -156 -154 -140 -120 -104 -97 -98 -95	-34 -21 -13 -6 0	-6224 -3840 -3992 -5316 -5480	-3228 -2964 -3224 -3448 -3560	8404 8320 8736 8204 8228
15090	115	496	0	16	306	3	93	0	0	0	-89 -89 -88 -83 -83 -90 -96 -101 -107 -110 -107 -98 -69 -1 98 204 297 363 403 421 431 437 437 429 417 399 372 345 329 334 363 421 514 625 705 695 578 367 82 -243 -552 -786 -898 -864 -716 -527 -357 -224 -131 -81	1 0 -5 -13 -20	-8936 -14172 -16724 -12412 -9160	-4864 -7524 -6276 -4864 -6252	8908 4816 6424 7372 8068
15091	115	492	0	16	306	3	93	0	0	1	-59 -51 -54 -64 -77 -88 -98 -109 -118 -124 -126 -122 -114 -106 -99 -90 -80 -74 -66 -53 -38 -21 -1 17 35 56 77 94 111 132 153 175 196 214 227 240 252 257 253 239 217 192 165 133 95 53 7 -38 -77 -108	-26 -35 -44 -49 -51	-5384 -3844 -3800 -5200 -6832	-5620 -4300 -4760 -5316 -5876	8904 9156 8372 8160 8364
15092	115	492	0	16	306	3	93	0	0	0	-134 -152 -166 -175 -176 -161 -122 -67 -11 37 78 119 166 210 240 257 265 268 267 259 243 225 214 210 206 202 198 187 169 152 130 103 77 54 32 11 -11 -36 -75 -122 -160 -184 -193 -190 -185 -188 -196 -200 -199 -200	-49 -45 -40 -31 -19	-13564 -16172 -13712 -10460 -7692	-9064 -9680 -7980 -6108 -3628	8832 9352 6420 7828 8768
15093	115	492	0	16	306	3	93	0	0	0	-197 -180 -138 -64 42 169 274 294 212 44 -210 -546 -893 -1151 -1264 -1215 -1036 -809 -604 -437 -300 -209 -161 -132 -113 -111 -127 -143 -145 -140 -130 -117 -104 -97 -95 -94 -91 -89 -93 -102 -100 -86 -66 -46 -29 -15 1 26 56 84	-3 2 8 10 10	-5240 -5460 -5272 -6648 -15580	-4000 -3432 -3468 -5416 -3528	8480 8260 8224 7948 7688
15094	115	496	0	16	306	3	93	0	0	1	109 137 192 291 407 507 573 601 605 598 589 575 561 548 525 483 426 369 317 268 221 175 137 109 84 56 30 5 -21 -49 -81 -116 -150 -181 -207 -230 -248 -259 -265 -266 -267 -266 -268 -272 -274 -273 -273 -274 -279 -288	10 6 3 -2 -11	-17320 -14204 -9304 -3688 -2956	-4556 -5372 -6588 -4984 -5056	6636 6640 8452 8956 9024
15095	115	496	0	16	306	3	93	0	0	0	-295 -297 -301 -303 -302 -301 -297 -291 -287 -284 -273 -260 -253 -250 -250 -247 -239 -234 -232 -232 -229 -223 -209 -176 -119 -30 99 237 319 301 175 -57 -393 -783 -1115 -1298 -1298 -1117 -843 -597 -422 -301 -220 -173 -137 -96 -40 38 130 213	-24 -32 -37 -36 -29	-4060 -4772 -5908 -21632 -15452	-4700 -5248 -5192 -9624 -9652	8384 8144 8028 9972 7712
15096	120	488	0	16	306	3	93	0	0	1	274 308 328 348 361 365 367 372 383 395 401 397 386 369 352 342 345 359 374 384 395 402 407 412 417 426 432 426 411 387 360 336 307 268 221 175 133 88 36 -19 -66 -100 -122 -144 -176 -211 -246 -277 -296 -308	-19 -10 1 7 7	-16168 -12524 -5740 -3816 -4328	-8180 -5844 -3212 -2936 -3916	7020 7680 8864 8520 8452
15097	120	488	5	16	306	3	93	0	0	0	-316 -324 -334 -339 -333 -321 -311 -309 -309 -301 -281 -254 -233 -221 -215 -211 -196 -172 -156 -150 -159 -176 -186 -190 -200 -222 -249 -267 -265 -249 -236 -233 -239 -244 -242 -231 -219 -211 -207 -202 -196 -193 -188 -164 -105 -2 140 312 507 676	8 11 11 10 10	-4964 -5916 -8384 -23380 -17688	-4004 -4144 -4740 -7096 -4912	8340 8064 8768 10612 7640
15098	120	488	5	16	306	3	93	0	0	0	744 676 487 203 -129 -437 -663 -765 -711 -537 -329 -151 -17 79 136 166 184 200 213 219 215 202 184 158 120 76 33 -3 -26 -39 -46 -50 -53 -61 -77 -93 -104 -106 -98 -84 -71 -55 -35 -10 18 43 64 86 108 128	7 4 2 -4 -14	-16964 -9580 -5392 -3824 -3308	-5732 -6836 -5744 -4596 -4540	5472 8544 8852 8648 8892
15099	120	488	5	16	306	3	93	0	0	1	143 153 156 152 146 130 110 92 73 49 17 -23 -64 -103 -138 -163 -183 -207 -231 -249 -261 -270 -274 -277 -281 -285 -285 -281 -273 -259 -239 -215 -190 -165 -146 -135 -127 -111 -78 -25 33 79 113 138 157 174 187 191 186 178	-23 -30 -32 -27 -19	-4544 -6496 -10776 -17208 -15096	-5968 -5372 -6240 -5064 -8212	8276 8584 8980 7316 6212
15100	120	488	5	16	306	3	93	0	0	0	156 153 149 141 130 125 123 115 101 87 74 70 71 75 87 115 166 238 327 406 425 337 133 -165 -511 -822 -1015 -1058 -954 -755 -549 -392 -284 -203 -141 -91 -56 -39 -32 -29 -28 -27 -28 -24 -13 -2 2 1 2 10	-8 6 17 22 25	-11072 -9356 -4832 -3440 -4852	-6312 -4236 -2964 -2972 -3900	8148 8172 8384 8376 8168
15101	120	476	5	16	306	3	93	0	0	1	18 23 22 16 16 26 41 56 70 79 83 93 113 141 172 205 238 267 291 306 317 325 329 326 315 294 267 238 213 189 168 162 178 209 242 268 277 272 257 241 223 217 231 251 266 274 279 290 304 313	28 28 26 23 18	-5416 -6776 -23732 -17912 -14220	-3700 -4292 -4896 -3964 -5940	8012 7780 7668 6432 6400
15102	120	476	5	16	306	3	93	0	0	0	309 296 282 272 265 258 247 226 194 154 116 78 39 2 -36 -70 -96 -119 -137 -151 -167 -179 -187 -194 -199 -198 -194 -189 -190 -197 -206 -212 -204 -170 -110 -19 102 231 310 291 171 -48 -361 -709 -992 -1142 -1137 -988 -754 -520	16 15 8 -5 -17	-9880 -7108 -2264 -4268 -4424	-6204 -5936 -4720 -4360 -5424	8088 8612 9056 8524 8160
15103	120	480	5	16	306	3	93	0	0	1	-332 -190 -92 -36 0 30 47 47 40 40 46 49 51 56 60 62 65 75 86 94 103 116 131 148 171 204 260 343 444 552 643 703 741 773 804 825 832 829 814 799 788 773 757 744 720 671 607 538 475 427	-30 -39 -41 -37 -28	-5060 -8172 -15672 -17212 -12832	-6020 -5992 -8036 -9156 -6412	8448 8624 9436 6744 7520
15104	120	480	5	16	306	3	93	0	0	0	391 356 302 236 177 131 93 52 7 -31 -50 -56 -66 -87 -110 -117 -102 -87 -85 -89 -97 -104 -110 -113 -112 -109 -107 -114 -127 -140 -150 -154 -157 -157 -153 -153 -156 -161 -167 -172 -172 -172 -172 -170 -174 -187 -199 -202 -197 -185	-14 -4 0 4 6	-9856 -3928 -3792 -4216 -4580	-5544 -3512 -3512 -3744 -3336	7996 7732 8276 8416 8304
15105	120	480	5	16	306	3	93	0	0	0	-171 -158 -133 -86 -5 118 268 387 412 307 51 -348 -800 -1155 -1325 -1281 -1054 -757 -503 -320 -196 -122 -80 -47 -3 65 162 277 385 464 511 535 551 558 550 534 516 496 471 449 434 419 400 384 373 363 353 342 332 318	4 4 6 7 9	-6996 -32400 -17076 -17216 -13308	-5100 -3884 -3092 -4812 -6632	7680 8092 5312 6432 6364
15106	122	476	5	16	306	3	93	0	0	1	304 296 292 293 299 299 286 262 236 212 190 172 153 131 106 78 49 17 -18 -55 -100 -142 -180 -220 -253 -273 -289 -301 -308 -312 -313 -307 -296 -283 -268 -250 -230 -217 -209 -199 -184 -163 -145 -138 -142 -153 -166 -174 -180 -189	14 16 12 8 4	-5916 -3916 -3820 -4324 -5564	-5892 -4928 -4224 -4784 -5980	9688 8752 8936 8672 8412
15107	122	476	5	16	306	3	93	0	0	0	-208 -217 -224 -233 -244 -253 -256 -252 -245 -238 -231 -222 -209 -196 -181 -164 -139 -93 -15 95 220 364 523 657 705 637 448 151 -195 -499 -691 -746 -664 -489 -304 -155 -41 39 87 116 133 145 148 136 118 97 69 44 23 8	2 4 8 14 24	-10888 -16500 -15920 -11764 -9396	-6772 -3144 -9820 -5820 -4904	8496 7688 9000 7652 8112
15108	122	468	5	16	306	3	93	0	0	1	1 -5 -8 -15 -29 -41 -47 -48 -49 -49 -45 -35 -22 -11 1 12 23 36 44 51 60 71 90 115 142 165 176 177 170 157 139 118 90 57 24 -6 -38 -72 -108 -142 -171 -194 -211 -223 -232 -239 -245 -249 -253 -255	33 35 36 36 33	-4808 -3384 -4252 -5224 -6236	-3392 -2552 -3356 -3500 -4500	8608 8312 8548 8364 7884
15109	122	468	5	16	306	3	93	0	0	0	-250 -242 -238 -236 -233 -223 -202 -170 -137 -112 -95 -70 -14 73 166 239 286 315 338 361 374 373 359 344 326 302 275 250 229 206 183 165 150 147 166 214 293 395 486 506 436 280 39 -269 -585 -839 -978 -973 -849 -678	30 26 19 13 10	-13336 -16064 -14680 -9924 -7872	-5012 -4180 -6072 -6540 -6436	7416 7096 5972 7968 8840
15110	122	456	5	16	306	3	93	0	0	1	-518 -388 -290 -223 -184 -159 -139 -124 -114 -106 -101 -102 -108 -116 -124 -127 -127 -124 -118 -108 -96 -78 -55 -32 -9 16 38 55 72 88 104 121 138 158 179 200 222 243 257 262 256 239 216 194 174 156 139 122 104 82	2 -9 -21 -32 -38	-4892 -3544 -4456 -4328 -7364	-5456 -4248 -5732 -5888 -5564	9024 8912 8204 8528 8904
15111	122	456	5	16	306	3	93	0	0	0	59 34 11 -8 -22 -18 13 61 115 170 227 275 303 313 303 283 272 275 279 280 280 275 273 270 266 261 255 242 222 202 181 154 131 116 101 79 52 25 0 -22 -36 -44 -55 -67 -71 -72 -73 -73 -74 -68	-38 -35 -29 -18 -8	-16680 -17044 -13260 -10156 -6340	-9324 -8712 -7808 -5172 -3588	8056 6516 6740 7836 8208
15112	122	456	5	16	306	3	93	0	0	0	-41 12 103 229 366 462 459 303 -21 -441 -827 -1064 -1115 -994 -755 -496 -296 -166 -90 -52 -30 -6 10 16 24 37 45 43 38 40 45 45 42 39 38 38 36 29 20 11 8 16 30 47 66 87 107 128 152 179	-2 1 3 1 -2	-3856 -4868 -5140 -5448 -7472	-3020 -3880 -3672 -3844 -5224	8720 8692 8360 8232 7792
15113	122	472	5	16	306	3	93	0	0	1	209 240 268 290 310 329 351 371 382 377 359 332 303 275 241 200 155 115 84 64 49 31 12 -2 -13 -23 -31 -40 -47 -52 -53 -53 -57 -62 -60 -50 -35 -23 -25 -38 -51 -59 -58 -56 -57 -63 -70 -77 -84 -95	-2 -2 -1 2 1	-18420 -16616 -12936 -8912 -4020	-1120 -6684 -6772 -5976 -4396	5144 7228 7036 8100 8660
15114	122	472	5	16	306	3	93	0	0	0	-128 -149 -170 -184 -189 -189 -188 -188 -191 -189 -173 -136 -73 23 153 289 374 370 259 19 -331 -709 -1010 -1163 -1140 -959 -708 -476 -296 -167 -85 -39 -8 14 27 36 52 75 94 105 114 120 118 108 104 116 148 193 232 262	-8 -22 -35 -41 -41	-4012 -4368 -3280 -14308 -15560	-3464 -4920 -6784 -5792 -6304	8744 8364 8684 8952 8732
15115	122	448	5	16	306	3	93	0	0	1	290 322 357 390 410 415 410 407 408 414 429 453 478 495 507 518 520 509 497 485 467 441 413 387 358 324 283 235 185 135 82 26 -25 -63 -80 -90 -107 -130 -149 -158 -157 -151 -145 -140 -138 -130 -115 -101 -94 -87	-36 -27 -12 2 9	-16304 -16116 -11792 -4920 -3276	-8576 -8552 -6284 -3744 -3164	9672 6964 7560 8812 8320
15116	126	448	5	16	306	3	93	0	0	0	-86 -97 -114 -126 -124 -114 -114 -137 -164 -175 -163 -159 -210 -283 -318 -306 -258 -210 -207 -224 -217 -193 -188 -198 -191 -147 -68 31 150 269 328 288 133 -152 -523 -866 -1078 -1133 -1028 -792 -499 -219 19 209 340 420 470 499 504 490	15 20 21 20 17	-3456 -4672 -6240 -32400 -15440	-3484 -3336 -4180 -6228 -5424	8244 8648 7668 9492 6720
15117	126	452	5	16	306	3	93	0	0	1	476 467 447 412 375 346 325 304 287 272 260 251 241 230 219 206 187 167 149 132 120 112 105 102 102 103 105 107 109 111 115 119 120 110 89 64 36 9 -15 -40 -67 -94 -121 -149 -171 -184 -193 -195 -196 -203	13 12 16 17 14	-16844 -9828 -7148 -4432 -3184	-4664 -7276 -6016 -4796 -4192	7696 8240 8940 8876 9056
15118	126	452	5	16	306	3	93	0	0	0	-210 -210 -199 -183 -169 -158 -152 -150 -140 -117 -91 -73 -67 -78 -98 -109 -108 -105 -106 -106 -105 -106 -110 -116 -123 -131 -134 -131 -122 -111 -99 -90 -86 -80 -60 -19 54 160 290 437 594 746 851 857 742 511 187 -157 -431 -575	11 5 1 2 6	-3432 -5000 -8276 -19088 -14304	-4528 -5928 -5784 -10496 -9416	8928 8316 8428 8496 11628
15119	126	452	5	16	306	3	93	0	0	0	-570 -440 -263 -101 27 117 172 196 188 174 172 176 182 192 202 211 219 219 210 194 177 165 155 145 137 131 123 115 103 86 71 66 66 71 82 100 118 139 161 182 202 220 236 247 253 252 247 237 226 213	12 24 34 39 42	-12460 -11144 -6972 -4416 -3636	-8284 -4292 -4148 -3492 -3100	7668 8348 8112 8232 8748
15120	126	452	5	16	306	3	93	0	0	1	195 167 135 105 76 49 23 -6 -33 -54 -66 -74 -78 -83 -87 -90 -88 -80 -66 -55 -49 -43 -36 -29 -24 -23 -24 -26 -25 -21 -21 -23 -27 -30 -24 5 61 125 175 203 213 220 230 237 238 236 234 237 254 293	46 44 40 37 30	-5388 -5756 -7172 -32400 -17644	-3268 -3592 -4656 -4416 -4988	8112 8048 9068 8700 5636
15121	126	452	5	16	306	3	93	0	0	0	443 510 516 432 265 32 -245 -510 -701 -784 -751 -632 -483 -348 -241 -158 -101 -65 -45 -35 -30 -30 -34 -34 -36 -41 -43 -47 -58 -70 -78 -80 -80 -82 -85 -90 -86 -70 -48 -27 -13 -4 3 9 18 31 48 69 94 114	22 20 15 5 -5	-12800 -10152 -5364 -4020 -4620	-5904 -6584 -6116 -4324 -5360	6584 8168 8808 8888 9028
15122	126	436	5	16	306	3	93	0	0	1	123 132 145 153 161 171 173 168 158 141 120 104 87 59 26 -4 -27 -47 -64 -82 -97 -105 -106 -107 -106 -99 -86 -69 -52 -37 -27 -24 -14 9 29 44 60 78 94 111 123 122 110 97 83 66 52 41 27 7	-13 -17 -16 -7 5	-5104 -6888 -8792 -15188 -16264	-5944 -4836 -4924 -11696 -8880	8672 8256 7436 7664 5388
15123	126	436	5	16	306	3	93	0	0	0	-18 -40 -53 -57 -61 -72 -81 -80 -60 -9 70 167 263 308 271 154 -44 -306 -576 -784 -880 -846 -707 -534 -382 -258 -151 -68 -16 16 32 40 44 44 48 53 56 59 59 53 51 54 54 54 58 62 65 71 77 78	20 32 38 38 35	-12904 -9244 -4164 -4600 -5216	-8668 -6184 -2420 -2692 -3820	6896 8032 8044 8848 8716
15124	126	448	5	16	306	3	93	0	0	1	76 77 77 73 71 77 90 105 122 139 154 165 174 180 181 183 185 182 171 156 139 121 106 102 105 103 89 72 68 82 107 136 162 188 217 254 293 321 336 339 332 320 311 302 287 264 243 228 214 205	26 13 2 -9 -18	-5164 -7108 -30452 -17108 -16900	-3864 -5180 -6380 -6332 -6332	8296 7984 9108 7288 5496
15125	126	448	5	16	306	3	93	0	0	0	196 181 159 135 108 83 60 42 30 23 16 5 -8 -19 -26 -31 -33 -27 -3 48 128 232 337 387 342 212 12 -260 -571 -839 -994 -1005 -871 -653 -439 -269 -135 -38 19 52 75 93 103 109 118 128 131 131 129 125	-23 -25 -31 -41 -49	-12888 -5780 -3584 -3312 -4316	-6328 -5728 -4468 -4176 -4624	6452 8416 8840 9180 8516
15126	132	444	5	16	306	3	93	0	0	1	123 122 124 132 137 135 134 136 139 145 154 166 177 192 212 231 249 267 285 304 330 359 390 437 504 575 632 668 679 674 668 662 647 627 607 594 584 572 554 527 490 450 416 390 373 359 348 341 343 353	-55 -58 -54 -48 -40	-6156 -9136 -16652 -15100 -13032	-3916 -5256 -8356 -11784 -7532	8512 8060 10392 9836 8436
15127	132	444	5	16	306	3	93	0	0	0	365 366 354 339 325 306 284 262 242 226 215 199 170 140 115 93 72 55 33 10 -5 -13 -13 -4 2 2 9 34 82 174 320 482 582 559 363 2 -437 -827 -1073 -1137 -1016 -764 -503 -300 -154 -58 2 48 81 90	-27 -16 -9 -2 3	-10896 -6532 -3928 -3684 -5308	-4228 -4056 -3292 -2936 -3296	8248 8724 8604 8856 8036
15128	132	436	5	16	306	3	93	0	0	1	102 110 103 91 85 91 101 107 112 120 132 144 149 148 146 151 160 172 187 217 273 350 429 499 556 607 659 706 737 749 747 739 729 715 693 664 626 583 539 495 449 399 348 301 259 220 177 134 101 78	1 -4 -8 -16 -24	-5392 -7876 -19684 -17516 -12976	-3748 -4880 -6412 -5120 -6012	8360 8664 11112 5468 6672
15129	132	436	5	16	306	3	93	0	0	0	64 52 34 14 -5 -19 -29 -33 -33 -35 -42 -50 -59 -80 -105 -121 -135 -140 -139 -139 -145 -147 -145 -147 -154 -160 -159 -154 -152 -154 -158 -160 -155 -142 -125 -105 -67 -3 96 228 346 383 305 96 -238 -637 -992 -1206 -1230 -1063	-30 -38 -50 -61 -70	-9512 -5972 -4016 -3848 -4504	-6708 -6088 -5112 -4832 -5708	7688 8636 8960 8512 8068
15130	132	436	5	16	306	3	93	0	0	0	-784 -515 -319 -188 -107 -60 -30 -10 3 17 44 98 177 265 349 417 458 482 494 493 476 452 431 415 403 397 390 376 368 367 371 380 386 383 384 396 417 443 460 463 455 441 427 408 384 358 326 289 258 225	-73 -69 -59 -44 -23	-6872 -20076 -15900 -14780 -11528	-5052 -9236 -9444 -8984 -7500	7936 6488 8088 7284 8348
15131	132	436	5	16	306	3	93	0	0	1	183 138 92 49 13 -11 -31 -52 -79 -106 -126 -145 -168 -188 -198 -194 -177 -153 -130 -111 -101 -95 -91 -91 -94 -102 -118 -140 -160 -172 -174 -171 -170 -173 -188 -208 -220 -217 -205 -198 -201 -211 -219 -220 -203 -168 -109 -6 136 266	-3 10 18 25 26	-8960 -4856 -5020 -4592 -5132	-4032 -3160 -3516 -3664 -3732	8344 8404 8440 8356 8124
15132	132	436	5	16	306	3	93	0	0	0	323 256 22 -362 -793 -1130 -1282 -1231 -1007 -721 -481 -309 -176 -56 61 172 259 314 348 375 393 396 384 370 363 355 342 329 312 287 261 235 212 196 183 171 166 162 150 136 127 119 109 99 86 76 74 78 84 88	24 23 20 15 12	-6044 -16532 -15940 -12372 -6072	-4260 -5248 -6096 -4676 -5300	8192 7196 5932 6532 8592
15133	132	436	5	16	306	3	93	0	0	1	87 79 68 53 40 31 18 -5 -33 -65 -96 -125 -149 -171 -193 -214 -233 -245 -251 -251 -245 -233 -219 -205 -185 -172 -162 -147 -139 -147 -160 -171 -177 -176 -173 -171 -176 -181 -186 -199 -217 -230 -241 -249 -254 -259 -257 -251 -245 -239	10 4 -4 -11 -17	-4628 -3780 -2432 -6812 -32400	-4304 -4736 -5020 -5344 -16080	9092 9128 8848 7552 10728
15134	132	436	5	16	306	3	93	0	0	0	-231 -217 -186 -126 -16 159 371 533 570 471 252 -41 -334 -549 -644 -610 -470 -290 -133 -13 77 131 152 157 160 163 167 166 164 162 148 130 120 117 117 116 109 88 56 24 -1 -20 -28 -22 -17 -16 -15 -15 -11 2	-19 -19 -14 -2 13	-13900 -16680 -13956 -8280 -4280	-11392 -8956 -8116 -3424 -2604	9676 7744 7488 9272 8644
15135	132	432	5	16	306	3	93	0	0	1	27 30 32 41 59 75 82 87 93 94 84 64 41 24 9 -10 -36 -63 -83 -94 -105 -121 -141 -161 -177 -193 -206 -208 -201 -193 -186 -185 -188 -190 -192 -190 -193 -199 -204 -212 -223 -229 -231 -233 -235 -238 -239 -237 -230 -207	22 30 38 43 46	-3076 -4448 -5676 -7744 -26480	-3228 -3700 -3696 -5244 -7280	8516 8708 7312 7804 11944
15136	135	432	5	16	306	3	93	0	0	0	-152 -67 28 115 180 218 240 264 299 356 448 548 593 540 385 145 -150 -446 -684 -816 -817 -709 -554 -405 -283 -189 -120 -77 -62 -63 -70 -73 -78 -85 -88 -91 -98 -104 -106 -106 -108 -109 -110 -115 -123 -131 -137 -139 -136 -131	48 46 46 47 44	-15572 -12876 -9956 -5492 -3004	-4320 -5720 -5672 -5668 -5348	9052 7608 7988 9516 9232
15137	135	420	5	16	306	3	93	0	0	1	-130 -132 -123 -102 -73 -44 -20 1 21 47 81 113 139 156 159 156 153 148 142 134 121 103 75 40 8 -21 -48 -76 -106 -132 -149 -157 -153 -144 -129 -111 -94 -77 -55 -32 -12 3 11 32 76 133 191 234 259 270	33 20 5 -8 -14	-3304 -4132 -6748 -12172 -16700	-4660 -5880 -5248 -6748 -4252	9108 8720 8424 7920 7312
15138	135	420	5	16	306	3	93	0	0	0	278 292 302 304 298 282 257 230 207 188 170 154 141 131 131 147 192 278 396 508 554 496 323 44 -298 -618 -837 -915 -838 -657 -466 -313 -195 -110 -51 -8 12 10 6 6 5 3 2 3 11 25 39 49 56 63	-14 -9 2 11 14	-15320 -11668 -9112 -5224 -3468	-9132 -6136 -4432 -3404 -3372	7336 8124 8712 8628 8416
15139	135	432	5	16	306	3	93	0	0	1	68 73 82 96 109 108 103 105 110 121 139 155 168 184 206 234 269 309 339 355 365 373 372 362 337 301 267 245 225 202 178 148 108 68 32 -1 -32 -52 -59 -58 -50 -37 -17 18 76 150 227 292 337 360	15 18 18 16 16	-5080 -5504 -6020 -8672 -16424	-3396 -2904 -4616 -4564 -4248	8576 8252 7776 7496 7364
15140	135	432	5	16	306	3	93	0	0	0	365 363 361 355 337 307 275 247 226 206 185 167 151 133 112 87 65 55 49 40 30 26 42 95 190 309 400 398 275 57 -222 -530 -807 -993 -1045 -941 -730 -507 -333 -214 -136 -83 -50 -36 -29 -22 -19 -22 -30 -39	14 9 4 -1 -11	-15632 -11408 -8700 -4544 -4536	-5352 -5472 -5984 -4712 -4912	5832 7412 8336 9012 8840
15141	135	428	5	16	306	3	93	0	0	1	-43 -36 -28 -20 -7 8 25 41 54 62 64 66 72 78 87 102 121 140 163 190 214 235 255 276 298 323 344 360 369 372 371 364 354 350 359 377 397 411 417 420 425 420 399 369 336 305 287 280 282 292	-23 -34 -44 -49 -50	-3504 -4160 -7748 -14068 -17264	-5268 -6340 -6200 -7980 -9112	8708 8204 7620 10148 8012
15142	135	428	5	16	306	3	93	0	0	0	310 310 310 311 311 307 298 289 285 283 274 256 226 191 154 114 75 39 4 -24 -39 -46 -51 -56 -61 -66 -59 -31 20 110 238 374 462 442 246 -130 -591 -992 -1213 -1215 -1030 -754 -500 -311 -181 -100 -52 -17 5 10	-48 -40 -30 -23 -19	-14988 -10244 -5080 -4512 -4920	-8596 -5816 -3656 -4072 -3912	6676 8200 8068 8032 8412
15143	135	424	5	16	306	3	93	0	0	1	3 -2 -2 -3 -1 4 8 6 -2 -6 0 16 39 56 66 70 68 66 72 84 102 125 151 176 199 222 242 261 282 304 324 353 408 489 573 640 680 691 684 667 636 590 536 480 424 372 332 300 270 239	-14 -10 -8 -6 -5	-4452 -6928 -19112 -16104 -16504	-2652 -4316 -3752 -3088 -5632	8600 7012 5616 8224 7224
15144	135	424	5	16	306	3	93	0	0	0	209 186 174 171 172 171 168 164 154 134 106 74 39 8 -22 -56 -87 -109 -125 -134 -144 -164 -185 -201 -217 -233 -244 -254 -265 -271 -265 -243 -199 -124 -7 138 251 272 178 -43 -382 -765 -1081 -1254 -1257 -1095 -842 -598 -414 -280	-7 -7 -6 -9 -13	-13556 -7400 -4612 -4392 -4368	-7200 -5924 -5292 -4628 -4720	6388 8244 8636 9016 8924
15145	135	420	5	16	306	3	93	0	0	1	-188 -131 -92 -63 -51 -50 -44 -23 0 7 4 7 12 18 24 29 31 36 43 54 69 85 98 113 131 152 175 203 240 289 357 433 508 573 627 676 723 753 748 719 685 650 622 605 585 558 525 481 431 382	-18 -24 -28 -27 -24	-4576 -7048 -21880 -14420 -14960	-6352 -5788 -11220 -8984 -8036	8188 8024 7560 9440 6716
15146	139	420	5	16	306	3	93	0	0	0	341 309 280 249 222 201 182 163 142 122 107 98 91 83 71 58 43 21 -1 -22 -43 -60 -73 -87 -102 -110 -111 -114 -125 -143 -164 -180 -183 -174 -161 -148 -131 -95 -34 64 209 383 510 515 352 14 -428 -839 -1097 -1157	-17 -8 -2 -2 -2	-10628 -8008 -4852 -4204 -4488	-5752 -4792 -3124 -3056 -3688	7728 7908 7984 8836 8348
15147	139	420	5	16	306	3	93	0	0	0	-1028 -771 -501 -297 -162 -75 -23 10 30 32 26 26 31 38 45 54 62 61 56 51 48 52 59 66 94 164 268 382 488 570 627 670 697 697 682 671 667 663 654 640 626 609 588 567 540 509 475 430 381 338	-2 -4 -4 -3 -1	-5356 -7132 -32400 -16924 -12592	-3596 -5000 -5136 -5024 -6424	8060 7972 11652 5688 6948
15148	139	424	5	16	306	3	93	0	0	1	299 261 220 171 119 72 27 -17 -51 -81 -113 -136 -149 -153 -146 -132 -118 -106 -97 -96 -104 -121 -142 -163 -178 -186 -194 -199 -200 -196 -187 -180 -177 -176 -179 -185 -184 -173 -155 -136 -122 -107 -81 -33 45 158 291 385 395 311	5 11 11 6 -3	-9044 -6060 -4016 -3864 -4272	-6292 -5288 -4884 -4612 -5640	7796 8868 9240 8844 8044
15149	139	424	5	16	306	3	93	0	0	0	-219 -618 -970 -1177 -1186 -1008 -754 -532 -367 -240 -146 -85 -45 -17 7 27 53 96 159 232 303 367 414 444 460 465 463 462 467 478 487 488 483 479 473 461 448 447 460 478 497 511 522 532 539 538 531 526 525 514	-13 -19 -22 -22 -18	-5688 -10540 -16008 -15832 -12132	-5880 -5736 -8156 -8048 -5848	8288 8596 9616 7112 8184
15150	139	420	5	16	306	3	93	0	0	1	484 438 383 329 281 236 194 153 109 62 20 -12 -36 -58 -81 -104 -123 -139 -154 -165 -164 -145 -122 -105 -95 -92 -97 -103 -110 -117 -123 -124 -128 -143 -159 -165 -169 -178 -185 -189 -190 -188 -188 -190 -183 -152 -90 1 124 264	-9 -2 2 7 14	-10260 -4516 -4076 -4748 -5484	-4320 -3328 -3396 -3600 -3412	8464 8088 8708 8464 8164
15151	139	420	5	16	306	3	93	0	0	0	366 366 260 54 -251 -611 -939 -1157 -1214 -1095 -869 -641 -458 -316 -210 -140 -93 -52 0 73 166 262 335 373 386 390 396 395 383 369 357 346 339 330 319 309 300 287 273 266 269 277 285 292 300 306 308 308 305 302	18 21 25 25 21	-5568 -32400 -15740 -17292 -12944	-3976 -5720 -3508 -5600 -7152	7684 11720 7980 5896 6604
15152	139	416	5	16	306	3	93	0	0	1	299 289 269 248 227 199 162 120 77 35 -9 -60 -113 -160 -196 -217 -226 -227 -223 -213 -200 -185 -166 -145 -129 -116 -99 -86 -90 -105 -118 -126 -132 -139 -148 -161 -172 -176 -177 -182 -187 -190 -193 -198 -203 -203 -204 -209 -210 -204	18 12 1 -9 -16	-6256 -4560 -4160 -3496 -5768	-5904 -5184 -4872 -5264 -5164	8932 8600 8556 8660 8356
15153	139	416	5	16	306	3	93	0	0	0	-186 -144 -72 45 195 311 326 220 -5 -323 -664 -940 -1077 -1025 -783 -451 -150 70 215 306 361 392 399 390 380 370 358 344 330 316 301 288 272 255 249 251 254 254 249 237 229 229 234 238 238 234 232 235 240 252	-20 -19 -13 -7 4	-9020 -14268 -15060 -16168 -10508	-5432 -5772 -9252 -9000 -4108	8512 4548 9104 6812 7988
15154	139	420	5	16	306	3	93	0	0	1	268 285 302 312 314 304 286 271 264 259 243 217 185 148 114 89 66 40 6 -27 -46 -51 -48 -45 -41 -34 -24 -9 2 0 -6 -13 -23 -38 -51 -60 -65 -68 -69 -70 -68 -69 -77 -89 -104 -117 -125 -135 -144 -148	16 22 27 33 36	-5280 -3856 -3732 -5908 -5920	-3592 -3040 -3288 -3552 -4344	8640 8400 8812 8268 7556
15155	139	420	5	16	306	3	93	0	0	0	-141 -124 -100 -69 -26 41 143 281 416 481 450 329 130 -110 -336 -490 -533 -451 -273 -65 111 243 333 381 395 391 383 377 364 351 342 334 321 304 290 280 271 264 257 244 226 205 186 173 169 172 177 183 190 199	36 35 32 27 24	-8272 -17164 -16476 -12504 -8700	-5700 -7368 -2500 -6444 -6936	8236 6800 7636 7652 8168
15156	143	416	5	16	306	3	93	0	0	1	227 243 262 279 291 302 312 321 328 329 325 315 299 279 262 241 214 182 151 124 105 91 77 60 47 43 48 58 62 59 54 52 54 58 59 54 44 34 25 19 15 9 -1 -14 -26 -34 -42 -47 -48 -46	20 10 -3 -16 -31	-5592 -3832 -4556 -4540 -5988	-6280 -5196 -5168 -5284 -4800	8604 9240 8660 8532 8028
15157	143	416	5	16	306	3	93	0	0	0	-42 -37 -33 -28 -22 -15 -3 27 85 180 321 510 695 795 763 590 294 -63 -388 -600 -649 -536 -330 -121 46 164 244 293 313 316 312 304 292 282 275 270 264 253 239 232 230 222 213 209 211 216 222 230 243 257	-41 -43 -41 -35 -24	-8840 -14860 -16356 -12232 -9504	-5152 -9452 -9968 -7372 -4908	8372 6680 6192 7044 8584
15158	143	420	5	16	306	3	93	0	0	1	276 296 312 327 344 368 398 432 465 489 501 507 511 512 506 492 474 454 431 406 373 333 287 240 195 155 122 95 71 51 36 26 19 16 15 13 9 1 -8 -19 -34 -49 -64 -79 -89 -93 -94 -97 -101 -111	-14 -8 -3 3 4	-6604 -4672 -4408 -5008 -5300	-3152 -3904 -3816 -3476 -3820	8140 8964 8616 8324 8228
15159	143	420	5	16	306	3	93	0	0	0	-124 -133 -136 -134 -128 -109 -60 22 116 195 252 299 353 427 528 658 790 851 784 584 276 -89 -424 -649 -723 -626 -419 -214 -67 26 86 127 146 144 128 112 100 85 66 50 34 14 -7 -22 -34 -43 -42 -31 -25 -26	4 3 0 -4 -7	-32400 -15572 -17508 -13612 -6888	-5044 -4208 -5900 -6896 -5640	11512 6080 6180 5560 8520
15160	143	412	5	16	306	3	93	0	0	1	-29 -28 -20 -8 5 20 45 79 117 147 165 180 200 222 248 270 285 290 287 278 262 235 205 181 160 136 105 66 20 -23 -54 -71 -78 -84 -91 -97 -105 -108 -106 -102 -90 -75 -62 -55 -57 -65 -73 -78 -88 -96	-14 -23 -32 -42 -51	-5148 -5004 -4244 -3448 -7352	-4996 -4036 -4392 -5516 -6080	8468 8692 8572 8604 7256
15161	143	412	5	16	306	3	93	0	0	0	-98 -98 -90 -69 -30 29 100 166 207 225 229 226 223 221 219 219 229 255 294 360 463 575 650 634 465 152 -217 -534 -705 -698 -554 -359 -189 -72 -9 18 33 43 52 58 56 46 34 28 36 50 56 50 32 18	-53 -47 -39 -24 -7	-30220 -13616 -17628 -9940 -6756	-15804 -8948 -8800 -6492 -2992	11908 9768 7332 8416 8536
15162	143	420	5	16	306	3	93	0	0	1	36 57 80 102 115 119 121 127 141 162 189 214 239 270 308 344 379 416 448 465 466 453 434 413 388 355 316 275 234 189 134 76 25 -15 -42 -58 -71 -81 -83 -81 -71 -52 -29 -7 13 31 55 104 179 258	11 15 17 17 16	-3552 -4848 -5928 -9348 -15112	-3508 -4156 -3800 -4652 -4056	8740 8364 8580 7444 6732
15163	143	420	5	16	306	3	93	0	0	0	327 378 410 430 439 431 406 375 348 322 296 270 245 224 209 196 186 182 182 189 218 286 401 523 568 487 286 -14 -373 -712 -953 -1047 -971 -771 -552 -384 -270 -188 -129 -89 -66 -58 -59 -62 -63 -61 -59 -51 -38 -22	13 8 7 5 0	-17064 -11880 -9568 -5804 -4068	-4524 -6300 -5684 -5736 -4328	8148 7200 7828 9184 8672
15164	143	412	5	16	306	3	93	0	0	1	-7 11 30 45 53 60 69 83 104 126 149 172 202 233 254 269 281 295 317 353 394 430 456 468 467 459 442 412 370 328 288 247 206 163 124 94 71 48 28 18 17 20 29 55 109 185 258 309 331 327	-7 -14 -20 -21 -16	-3896 -3324 -5124 -10488 -14388	-5116 -6144 -5576 -5008 -2176	8624 8580 8348 7748 6692
15165	143	412	5	16	306	3	93	0	0	0	313 294 268 242 230 229 227 222 214 200 187 177 167 156 147 138 129 120 111 103 96 91 103 142 213 320 440 512 483 327 50 -306 -653 -892 -977 -907 -725 -515 -339 -209 -116 -52 -8 23 46 60 66 75 88 98	-7 7 24 34 38	-16688 -11912 -9628 -5396 -3632	-9152 -6688 -4300 -3164 -3240	6496 7084 8356 9576 9076
15166	144	412	5	16	306	3	93	0	0	1	102 101 96 95 101 111 118 116 114 119 133 157 180 185 180 180 195 225 257 282 301 315 329 336 333 326 320 318 322 327 330 328 317 293 258 221 193 181 177 180 186 197 214 236 255 259 254 251 252 253	42 47 51 53 51	-4856 -6156 -8104 -16416 -16904	-3408 -3272 -3984 -6092 -5792	8588 8036 8484 8368 7264
15167	144	412	5	16	306	3	93	0	0	0	254 246 227 202 173 140 109 86 75 69 58 46 26 -3 -34 -63 -87 -102 -112 -129 -144 -155 -162 -160 -145 -121 -78 -3 107 230 307 277 139 -68 -329 -615 -861 -1010 -1033 -923 -726 -522 -353 -224 -131 -75 -48 -27 -2 15	47 44 34 18 3	-14580 -10844 -6476 -3872 -3684	-7032 -5808 -6064 -4932 -4780	6376 8180 9376 8640 8772
15168	144	416	5	16	306	3	93	0	0	1	25 35 39 29 20 23 29 34 39 36 31 35 46 57 73 89 104 121 144 167 188 209 235 266 299 330 356 378 392 398 398 399 397 400 416 439 462 468 444 401 352 309 274 240 206 180 169 166 161 153	-10 -20 -24 -21 -18	-3984 -5660 -32400 -16116 -17524	-4980 -5276 -11860 -10316 -10640	8472 8300 6736 9592 7004
15169	144	416	5	16	306	3	93	0	0	0	136 131 125 112 89 62 41 27 19 14 5 -11 -31 -53 -74 -94 -110 -121 -132 -141 -141 -137 -131 -126 -127 -126 -111 -76 -12 90 215 306 312 224 60 -154 -390 -613 -775 -848 -817 -699 -546 -400 -265 -154 -96 -81 -77 -73	-11 -1 7 15 25	-12476 -6044 -3524 -3032 -4364	-8804 -3056 -1464 -2400 -3804	7184 8660 8684 9064 8500
15170	144	408	5	16	306	3	93	0	0	1	-64 -56 -55 -56 -55 -55 -60 -67 -69 -61 -47 -35 -34 -38 -35 -29 -18 5 36 67 97 128 156 188 226 267 308 347 391 438 480 509 525 529 520 496 458 407 354 305 264 228 192 158 124 91 61 41 36 39	33 37 39 33 23	-5184 -9056 -18864 -16700 -16976	-3520 -5260 -7460 -5112 -6260	8048 8348 8672 8260 5288
15171	144	408	5	16	306	3	93	0	0	0	39 41 45 42 35 21 0 -24 -53 -80 -99 -115 -127 -137 -152 -173 -192 -198 -199 -202 -201 -200 -203 -202 -198 -200 -208 -210 -206 -190 -142 -61 50 175 257 252 170 33 -166 -417 -663 -847 -920 -859 -700 -515 -351 -220 -121 -59	14 1 -18 -35 -49	-9820 -4904 -4320 -3676 -3372	-5760 -4716 -4200 -4612 -4912	7916 8988 8792 9064 9024
15172	144	412	5	16	306	3	93	0	0	1	-22 4 28 44 53 60 66 72 79 86 95 105 116 127 138 150 163 182 207 237 270 303 345 399 460 524 584 633 669 698 722 737 742 743 740 727 707 682 651 618 582 540 487 435 391 349 301 256 218 181	-59 -63 -60 -54 -45	-6996 -10596 -14836 -16972 -11868	-5804 -6112 -3796 -9248 -6388	8084 8540 8224 8884 7744
15173	144	412	5	16	306	3	93	0	0	0	156 144 134 121 104 83 63 61 78 100 108 97 76 55 42 33 24 17 10 2 -7 -15 -21 -25 -30 -37 -42 -44 -41 -36 -30 -23 0 48 124 233 368 492 565 558 433 152 -264 -702 -1017 -1128 -1024 -781 -530 -335	-33 -24 -18 -12 -7	-9296 -5492 -3904 -4660 -5184	-3928 -2600 -2744 -3920 -3668	8156 8216 8956 8596 8444
15174	144	416	5	16	306	3	93	0	0	1	-189 -83 -14 33 65 81 91 105 125 148 166 179 188 194 200 209 238 314 432 552 652 727 779 816 836 838 828 819 814 807 793 780 777 776 766 749 733 716 692 663 631 596 560 516 461 397 331 270 211 154	-6 -7 -11 -17 -20	-5980 -18920 -15144 -14144 -9984	-4044 -5412 -1700 -6540 -5592	8040 5308 7076 6840 7796
15175	144	416	5	16	306	3	93	0	0	0	99 50 12 -12 -21 -29 -40 -50 -56 -54 -50 -49 -50 -58 -77 -103 -124 -133 -132 -124 -123 -123 -111 -97 -85 -80 -84 -86 -76 -65 -60 -57 -56 -60 -62 -55 -29 26 121 255 387 445 379 179 -137 -522 -880 -1117 -1180 -1051	-23 -30 -39 -47 -56	-6988 -4096 -3276 -3240 -4084	-5760 -4900 -4268 -5588 -6044	8128 8960 8708 8644 8516
15176	146	408	5	16	306	3	93	0	0	1	-502 -287 -145 -53 7 48 77 93 103 114 129 147 181 236 307 384 447 480 489 485 472 463 465 475 485 492 498 508 518 531 550 574 599 622 639 645 644 643 633 609 578 552 520 478 435 381 319 267 216 157	-60 -56 -49 -38 -22	-7460 -15040 -17824 -14856 -9804	-5472 -10696 -9800 -7784 -5672	7684 8920 7588 6720 7972
15177	146	408	5	16	306	3	93	0	0	0	107 74 45 15 -10 -30 -44 -53 -69 -88 -95 -93 -87 -79 -78 -83 -86 -87 -94 -102 -99 -93 -103 -128 -151 -161 -160 -158 -161 -167 -166 -155 -148 -147 -151 -155 -147 -125 -80 9 148 301 398 359 134 -256 -717 -1105 -1311 -1299	-11 -6 -2 -1 -2	-7212 -4336 -4328 -5168 -16308	-3524 -4036 -3364 -3228 -5408	8056 8852 8364 8000 7800
15178	146	408	5	16	306	3	93	0	0	0	-1093 -786 -503 -301 -174 -99 -52 -16 9 25 53 117 199 272 333 376 395 395 391 385 374 362 345 327 318 321 329 332 332 333 339 349 363 374 379 379 371 361 349 336 320 302 282 263 243 218 186 146 97 45	-1 2 3 5 9	-16464 -17936 -14580 -6868 -4176	-2304 -4784 -7104 -5848 -4224	8116 7044 6384 8660 8760
15179	146	408	5	16	306	3	93	0	0	1	-1 -41 -83 -131 -176 -210 -232 -239 -235 -226 -211 -187 -166 -153 -144 -139 -139 -144 -147 -149 -153 -150 -141 -135 -131 -123 -117 -113 -105 -100 -99 -93 -95 -118 -163 -206 -217 -175 -87 22 138 250 312 291 181 -46 -389 -756 -1025 -1138	7 0 -7 -13 -18	-3416 -3316 -3544 -9008 -15288	-3968 -4376 -5420 -5532 -9468	9116 8792 8572 7544 8292
15180	146	408	5	16	306	3	93	0	0	0	-1067 -850 -599 -396 -237 -105 -1 82 165 244 298 320 325 318 299 283 271 259 250 251 259 269 276 286 300 319 338 347 339 330 333 351 381 415 445 473 500 518 523 524 522 511 490 459 422 385 344 294 239 191	-18 -14 -6 8 18	-16012 -18688 -10568 -5648 -3560	-7268 -7976 -5060 -3264 -3292	8852 6672 8556 9368 8100
15181	146	404	5	16	306	3	93	0	0	1	151 115 78 39 11 4 8 6 -2 -9 -8 -3 3 10 17 21 27 31 27 16 -3 -30 -55 -73 -75 -71 -78 -93 -108 -122 -126 -119 -108 -102 -105 -108 -99 -68 -12 71 183 307 382 369 265 58 -238 -562 -835 -982	23 28 36 41 45	-4732 -4828 -6116 -7624 -32400	-3384 -3700 -3968 -4124 -5672	8324 8540 7716 8420 8936
15182	146	404	5	16	306	3	93	0	0	0	-961 -787 -534 -293 -97 66 192 275 324 338 337 336 339 342 340 331 323 317 310 300 292 297 312 319 312 295 277 270 273 278 286 295 309 330 346 353 361 370 374 378 378 370 358 334 295 247 194 144 106 76	49 48 45 42 34	-17348 -13980 -9412 -5240 -2696	-8840 -4760 -5312 -5076 -4172	7700 6084 8424 9064 8864
15183	146	400	5	16	306	3	93	0	0	1	1 -35 -56 -64 -57 -43 -34 -22 -4 10 14 18 23 20 11 1 -7 -5 3 -1 -17 -34 -50 -62 -70 -78 -86 -92 -92 -90 -88 -88 -90 -91 -90 -82 -64 -37 3 72 182 311 399 405 325 146 -137 -471 -756 -915	20 7 -2 -8 -8	-3668 -5028 -8212 -7264 -12932	-6040 -4952 -4064 -4688 -7520	9376 8496 8056 6876 6496
15184	146	400	5	16	306	3	93	0	0	0	-914 -766 -541 -319 -144 -16 65 105 130 157 180 191 196 208 218 220 221 227 236 234 218 205 198 193 189 179 169 172 182 198 218 237 261 295 334 368 391 403 405 399 385 364 344 323 297 259 207 152 101 59	0 9 17 24 27	-18068 -13940 -9592 -5300 -4348	-7676 -6872 -4656 -3140 -3084	6456 6560 8428 8640 8664
15185	146	404	5	16	306	3	93	0	0	1	30 9 -8 -20 -33 -45 -54 -59 -56 -48 -39 -33 -27 -24 -26 -29 -34 -42 -50 -55 -60 -69 -88 -110 -129 -142 -151 -160 -168 -175 -182 -188 -192 -194 -191 -179 -166 -155 -139 -101 -25 100 249 352 355 242 24 -258 -543 -758	29 33 35 35 35	-4656 -5732 -6060 -15572 -16808	-4000 -3796 -4388 -6084 -3844	8652 8356 7980 8312 8356
15186	147	404	5	16	306	3	93	0	0	0	-854 -809 -648 -440 -260 -135 -52 2 39 66 81 86 86 87 88 87 86 88 89 84 76 70 66 59 49 39 35 42 54 60 66 77 101 137 175 212 250 283 304 315 319 318 317 312 295 264 228 188 137 85	36 31 22 11 -2	-16040 -12020 -9168 -4192 -3976	-7288 -6076 -6152 -5064 -4436	5600 7132 7724 9012 9072
15187	147	404	5	16	306	3	93	0	0	1	35 -11 -47 -67 -78 -85 -95 -103 -106 -106 -102 -98 -96 -88 -74 -62 -62 -74 -93 -110 -130 -151 -172 -193 -214 -236 -257 -273 -277 -272 -264 -256 -250 -247 -242 -232 -217 -195 -166 -125 -54 68 244 453 616 656 541 268 -112 -486	-20 -37 -45 -48 -45	-3904 -4020 -11144 -16356 -17184	-4576 -5648 -6444 -1864 -9516	8856 8404 7796 8220 8024
15188	147	404	5	16	306	3	93	0	0	0	-744 -827 -729 -520 -309 -143 -24 56 107 133 135 126 119 115 113 111 110 110 113 118 124 133 138 137 138 145 152 160 171 185 200 219 239 258 282 315 352 387 418 440 453 462 466 462 452 438 416 386 350 310	-41 -32 -20 -10 -5	-15644 -9296 -5440 -3336 -3564	-8304 -4032 -3008 -3196 -3716	6696 8044 8308 8496 8532
15189	147	404	5	16	306	3	93	0	0	1	269 228 186 142 98 60 35 21 15 8 -9 -31 -51 -66 -76 -81 -86 -95 -106 -119 -133 -147 -153 -156 -157 -158 -160 -162 -166 -172 -174 -172 -170 -167 -164 -154 -127 -76 -10 68 151 236 346 494 630 672 582 365 48 -308	2 7 9 8 4	-4160 -6480 -12032 -18028 -18224	-4092 -4120 -5040 -6748 -4668	8448 8280 7532 7596 7360
15190	147	404	5	16	306	3	93	0	0	0	-806 -837 -697 -478 -279 -136 -46 14 61 89 95 91 84 70 38 5 -13 -30 -44 -49 -51 -54 -51 -50 -51 -45 -27 0 33 64 84 102 122 145 178 216 244 258 270 287 300 306 308 306 299 286 265 238 209 182	-6 -14 -22 -34 -44	-10816 -8164 -5320 -5080 -4044	-5268 -7132 -5648 -3780 -4388	7896 8548 7744 8076 8948
15191	147	400	5	16	306	3	93	0	0	1	148 109 68 27 -12 -48 -81 -102 -108 -105 -106 -108 -105 -95 -81 -70 -67 -74 -86 -93 -98 -105 -115 -126 -133 -139 -146 -147 -143 -136 -131 -128 -122 -108 -80 -36 15 61 99 134 170 217 302 431 564 636 593 409 92 -282	-49 -53 -54 -49 -39	-4676 -6572 -10696 -13256 -16132	-5808 -5908 -5792 -7016 -10216	8412 8304 9376 8336 7348
15192	147	400	5	16	306	3	93	0	0	0	-606 -800 -822 -678 -453 -244 -91 2 44 61 77 99 121 132 126 107 92 94 110 127 137 147 156 156 156 165 179 193 206 216 222 234 260 291 318 340 359 380 404 428 445 455 459 455 444 425 400 376 353 320	-29 -15 -2 8 17	-11708 -10052 -5948 -3228 -4056	-7564 -5088 -3388 -2660 -3712	8236 8032 8484 8776 8264
15193	147	404	5	16	306	3	93	0	0	1	266 199 135 81 40 9 -21 -49 -69 -86 -99 -104 -101 -94 -82 -72 -72 -86 -108 -130 -143 -143 -140 -142 -146 -150 -148 -146 -144 -138 -120 -82 -26 31 78 111 128 134 137 139 159 218 325 470 591 609 502 294 3 -331	28 34 38 39 35	-5232 -6312 -10484 -16604 -16112	-3784 -4228 -5264 -5756 -6512	8148 8068 8148 9068 6032
15194	147	404	5	16	306	3	93	0	0	0	-635 -834 -882 -780 -583 -382 -228 -116 -33 21 45 39 14 -12 -26 -21 -7 5 7 2 0 3 10 20 31 47 55 51 44 43 42 50 64 80 101 128 152 172 201 234 262 285 296 296 294 287 271 254 233 207	28 22 14 4 -4	-11524 -8780 -3416 -2872 -4144	-4748 -6764 -3484 -4344 -4980	7272 8864 8788 9296 8360
15195	147	400	5	16	306	3	93	0	0	1	176 140 90 34 -12 -44 -62 -71 -75 -75 -71 -63 -50 -34 -19 -9 -6 -7 -14 -20 -25 -32 -44 -50 -48 -43 -30 -5 27 61 95 125 145 161 179 192 195 187 175 174 197 252 343 456 546 560 468 260 -48 -387	-10 -15 -16 -11 -3	-5008 -12436 -17368 -16604 -15444	-6028 -7880 -6828 -8616 -8084	8184 8564 8416 8576 5856
15196	149	400	5	16	306	3	93	0	0	0	-667 -816 -811 -673 -482 -316 -188 -91 -21 24 49 60 66 75 85 100 117 129 136 139 143 148 151 152 152 155 162 168 176 188 203 222 243 261 277 295 315 335 349 355 358 365 372 371 357 334 309 284 254 220	11 25 33 37 38	-10636 -4476 -3824 -4612 -4952	-7904 -2536 -2928 -3816 -3648	7752 9072 8656 8848 8556
15197	149	396	5	16	306	3	93	0	0	1	149 109 59 10 -26 -49 -57 -54 -47 -38 -29 -18 -8 -4 -3 -4 -8 -9 -7 -10 -21 -29 -26 -16 -7 6 36 76 117 147 155 154 156 160 160 146 125 112 123 164 243 351 435 447 373 209 -28 -294 -533 -692	35 31 30 29 23	-6596 -10024 -14116 -16820 -11020	-5396 -5196 -4868 -6000 -7268	7848 7516 5232 8780 8648
15198	149	396	5	16	305	3	93	0	0	0	-735 -664 -527 -385 -265 -164 -83 -27 7 26 34 39 48 55 60 65 70 73 64 49 30 14 -2 -13 -14 -16 -13 -2 16 40 63 90 126 162 200 239 270 285 288 287 292 296 293 284 268 243 216 191 159 123	17 9 -4 -17 -25	-7996 -4676 -3740 -3848 -4900	-6660 -5400 -3892 -4172 -5448	9196 8556 8588 9092 8324
15199	149	400	5	16	305	3	93	0	0	1	91 61 28 -2 -25 -43 -60 -75 -80 -76 -65 -45 -23 -5 9 12 6 3 9 19 28 38 52 68 83 94 99 100 101 104 99 87 76 67 61 57 60 77 115 181 281 393 455 426 311 116 -153 -444 -678 -800	-30 -29 -21 -11 4	-7252 -11848 -16112 -14932 -11152	-5844 -7576 -9356 -9368 -5788	8360 8192 7328 5592 8204
15200	149	400	5	16	305	3	93	0	0	0	-782 -647 -469 -308 -178 -75 3 54 85 110 133 149 158 155 147 140 139 146 157 166 172 180 196 217 237 257 275 283 278 268 266 279 293 303 313 327 345 357 352 339 332 334 329 303 261 218 177 139 101 59	21 34 39 44 46	-7192 -3588 -3492 -5056 -5352	-3696 -2608 -3320 -3012 -3664	9328 9036 8852 8224 7560
15201	149	396	26	16	305	3	93	0	0	1	20 -13 -43 -71 -89 -95 -100 -109 -116 -116 -106 -88 -62 -25 29 84 125 154 174 188 194 192 178 155 128 98 68 42 21 2 -12 -21 -28 -31 -32 -34 -30 -12 30 102 206 307 336 256 69 -197 -495 -765 -953 -1026	45 40 30 15 2	-8048 -26616 -17452 -12900 -8884	-4956 -7120 -5860 -4412 -6952	8940 10924 6072 6764 8684
15202	149	396	26	16	305	3	93	0	0	0	-969 -801 -595 -417 -290 -207 -160 -139 -132 -133 -138 -134 -118 -100 -88 -84 -79 -66 -51 -38 -19 4 29 46 51 61 84 112 145 174 193 211 241 275 311 347 381 403 401 394 395 392 382 364 334 293 247 198 145 97	-12 -30 -44 -50 -52	-4480 -4032 -3936 -5344 -7224	-5784 -4080 -5028 -5416 -5384	8736 8820 9008 8592 8256
15203	149	400	26	16	305	3	93	0	0	1	55 16 -13 -32 -44 -49 -49 -47 -44 -35 -15 7 29 46 46 40 53 81 102 120 138 152 172 197 216 224 225 219 203 182 165 155 144 134 129 132 148 190 261 370 502 588 592 506 285 -74 -488 -840 -1015 -963	-50 -42 -33 -28 -25	-6828 -16424 -17420 -15536 -10428	-4796 -9696 -8836 -8888 -6808	8548 8156 7556 6296 8228
15204	149	400	26	16	305	3	93	0	0	1	-522 -342 -221 -133 -54 7 44 61 58 45 34 40 62 87 105 115 128 149 170 183 186 189 192 185 183 199 224 258 295 322 343 367 386 396 406 417 426 423 405 380 364 352 321 269 211 167 139 115 85 48	-22 -22 -22 -21 -21	-4340 -4104 -5032 -4404 -7104	-2444 -2672 -3712 -2876 -4636	9372 8376 8576 8128 8112
15205	149	400	26	16	305	3	93	0	0	0	13 -9 -26 -45 -64 -75 -76 -72 -64 -42 -1 44 78 96 105 112 116 114 103 89 78 70 62 53 39 26 21 21 24 29 32 33 38 45 54 72 109 178 282 373 382 289 95 -201 -554 -871 -1067 -1082 -915 -658	-20 -20 -21 -24 -26	-23728 -15688 -16808 -13680 -6276	-5392 -2220 -5436 -6568 -6156	7480 6464 6780 6536 8808
15206	150	396	26	16	305	3	93	0	0	1	-425 -263 -164 -101 -57 -32 -20 -16 -17 -20 -25 -27 -23 -18 -11 -2 12 38 73 99 118 139 155 173 196 217 236 264 300 331 356 378 400 420 439 453 460 462 459 444 420 389 355 318 275 229 182 133 89 59	-30 -37 -42 -46 -48	-4588 -4212 -3284 -5584 -11584	-4596 -4328 -4644 -5584 -7048	8732 9044 8760 8656 8544
15207	150	396	26	16	305	3	93	0	0	0	52 68 98 134 169 206 237 251 248 235 221 206 190 175 162 153 145 133 118 102 88 73 58 44 30 15 -8 -32 -47 -52 -56 -72 -88 -91 -74 -27 50 164 308 419 428 287 -24 -429 -789 -1004 -1039 -889 -631 -379	-45 -41 -33 -17 -2	-17148 -16656 -11484 -9620 -5396	-4796 -8824 -5120 -4400 -2748	7548 8996 6964 7952 8608
15208	150	400	26	16	305	3	93	0	0	1	-191 -66 8 51 84 106 113 111 107 102 105 114 112 94 65 36 33 64 106 141 163 163 143 128 136 165 207 255 300 339 377 409 429 442 454 460 457 447 434 414 383 343 310 302 312 328 338 337 333 329	8 16 21 21 18	-3304 -3960 -4944 -6952 -16792	-2068 -4352 -3452 -3888 -5244	8972 8688 7744 8300 6484
15209	150	400	26	16	305	3	93	0	0	0	316 296 271 246 230 222 216 204 190 174 147 111 81 66 60 59 52 31 1 -28 -49 -67 -82 -93 -102 -112 -123 -135 -143 -151 -158 -158 -156 -144 -103 -20 98 210 249 181 14 -247 -590 -933 -1175 -1269 -1196 -994 -760 -564	11 3 0 0 -6	-16052 -12824 -9644 -6180 -4568	-5648 -6232 -7072 -6588 -4700	7312 6656 8336 9088 8400
15210	150	392	26	16	305	3	93	0	0	1	-406 -276 -188 -130 -78 -34 -10 -3 4 10 11 7 7 8 10 15 21 26 36 51 67 85 101 114 123 132 149 185 237 296 347 383 404 415 419 415 402 378 355 353 382 428 457 445 392 321 246 189 158 143	-13 -17 -20 -18 -10	-3904 -3148 -5484 -9536 -15176	-3556 -5808 -4572 -4840 -2612	8556 8784 8152 8220 6156
15211	150	392	26	16	305	3	93	0	0	0	133 129 124 129 143 155 160 162 157 138 107 67 27 1 -9 -13 -14 -16 -20 -24 -24 -17 -8 3 18 33 50 74 91 101 115 151 220 329 452 518 480 354 142 -164 -513 -803 -963 -970 -838 -644 -472 -339 -228 -147	-2 10 25 35 38	-17840 -12220 -10228 -5352 -4184	-8136 -7172 -3284 -1664 -4264	7276 6716 8400 9232 9196
15212	150	392	26	16	305	3	93	0	0	1	-108 -90 -76 -66 -61 -59 -51 -44 -41 -39 -34 -29 -27 -27 -26 -20 -13 -3 16 40 69 101 127 151 180 213 244 272 296 318 340 359 370 371 362 342 322 313 311 308 298 271 232 194 161 127 94 67 47 33	42 45 43 42 41	-4744 -4792 -6140 -9668 -17236	-4300 -4032 -5580 -5868 -4184	8240 8068 7948 8616 8524
15213	150	392	26	16	305	3	93	0	0	0	23 11 6 8 17 28 28 12 -6 -25 -50 -78 -102 -122 -135 -143 -155 -171 -182 -188 -186 -182 -179 -172 -167 -169 -174 -180 -180 -166 -134 -75 18 123 176 136 20 -156 -378 -604 -783 -879 -877 -776 -618 -467 -345 -249 -185 -147	38 37 34 24 11	-16280 -11288 -7800 -2920 -4188	-5992 -5464 -5808 -4232 -4464	5360 7796 9200 8320 9140
15214	150	400	26	16	305	3	93	0	0	1	-118 -90 -66 -51 -36 -19 -5 5 12 20 30 38 42 46 54 61 70 85 106 133 159 179 202 231 258 283 307 328 346 367 385 395 401 405 402 388 365 337 309 279 243 204 167 138 116 98 82 73 71 72	0 -8 -10 -6 2	-3596 -4948 -11680 -15380 -16364	-5148 -5376 -7308 -6700 -10092	8684 8452 7892 8052 8616
15215	150	400	26	16	305	3	93	0	0	0	73 75 78 85 92 94 93 89 80 67 56 47 43 45 48 39 25 25 21 -3 -23 -24 -9 13 40 57 62 70 89 120 182 289 397 427 351 203 11 -217 -454 -639 -732 -720 -630 -510 -395 -283 -169 -78 -36 -30	10 19 26 29 32	-15808 -11996 -5084 -3284 -3560	-9008 -7240 -3188 -2848 -2832	7164 7640 8380 7512 8572
15216	152	392	26	16	305	3	93	0	0	1	-33 -32 -23 -8 12 25 31 28 14 3 5 13 23 35 54 79 100 117 130 140 163 198 236 266 292 319 349 383 419 453 478 486 478 464 443 415 380 340 293 243 196 153 120 97 76 58 45 37 32 29	34 32 28 23 16	-4180 -7724 -14904 -16508 -17520	-3000 -4432 -5408 -5640 -4472	8440 8452 9224 8204 8388
15217	152	392	26	16	305	3	93	0	0	0	30 28 25 22 13 -3 -21 -35 -49 -61 -71 -81 -91 -102 -107 -105 -101 -104 -116 -129 -142 -158 -172 -188 -205 -211 -199 -170 -112 -13 125 249 297 252 123 -91 -385 -696 -933 -1047 -1010 -848 -641 -456 -309 -193 -117 -79 -53 -31	10 6 -2 -13 -24	-11068 -7040 -3472 -3092 -3896	-5396 -6100 -5260 -4388 -4332	8068 9112 9128 8700 8640
15218	152	400	26	16	305	3	93	0	0	1	-10 5 23 36 44 54 70 86 96 101 105 112 123 139 158 180 198 215 236 263 293 330 379 442 510 568 608 625 631 633 630 617 594 558 509 452 391 333 283 234 182 131 87 56 39 30 27 39 54 60	-32 -37 -38 -34 -30	-5704 -8468 -15160 -15688 -14496	-5504 -5048 -8880 -8192 -8404	8196 8588 6600 9740 5904
15219	152	400	26	16	305	3	93	0	0	0	55 36 12 -5 -18 -30 -39 -44 -39 -25 -15 -19 -33 -49 -56 -57 -57 -60 -58 -47 -34 -26 -29 -29 -13 27 107 234 383 479 454 271 -77 -521 -931 -1191 -1257 -1138 -895 -641 -441 -295 -195 -137 -96 -58 -28 -10 0 6	-21 -11 -6 -3 -1	-9564 -6540 -3744 -3912 -4508	-6684 -3260 -2400 -3404 -3928	8004 8616 7984 8628 8340
15220	152	388	26	16	305	3	93	0	0	1	10 16 23 29 36 46 61 74 88 104 120 138 159 181 205 233 265 308 363 425 487 539 579 605 616 613 602 586 566 535 489 432 373 317 264 218 179 145 117 92 69 49 35 22 6 -12 -28 -37 -37 -40	-5 -12 -20 -30 -38	-5440 -7620 -27488 -17600 -14252	-4152 -4896 -7256 -4920 -6076	8468 8392 14668 5864 6296
15221	152	388	26	16	305	3	93	0	0	0	-50 -66 -84 -100 -116 -136 -158 -172 -180 -189 -209 -238 -261 -272 -274 -270 -261 -246 -232 -220 -210 -194 -165 -117 -42 77 228 341 344 204 -71 -437 -808 -1094 -1231 -1193 -1000 -734 -495 -321 -197 -111 -53 -13 11 23 33 40 37 29	-42 -49 -59 -68 -74	-9852 -5968 -4532 -3076 -3712	-6672 -6000 -4116 -5096 -4804	8152 8764 8436 8640 7948
15222	152	396	26	16	305	3	93	0	0	1	27 37 56 70 76 81 90 106 123 136 147 161 173 182 198 226 263 301 331 350 365 382 403 424 437 440 434 424 413 399 371 326 278 234 193 160 127 86 37 -13 -60 -98 -119 -121 -116 -113 -116 -127 -140 -145	-75 -65 -44 -17 13	-5668 -8288 -15384 -17096 -14880	-5192 -5852 -8444 -9996 -6560	7728 7632 7612 7540 6564
15223	152	396	26	16	305	3	93	0	0	0	-143 -133 -114 -100 -94 -88 -85 -91 -97 -95 -85 -71 -48 -29 -20 -21 -31 -41 -43 -31 1 64 175 333 482 531 400 80 -354 -773 -1054 -1146 -1056 -831 -571 -357 -211 -124 -77 -43 -15 -2 -1 3 12 22 30 36 46 55	38 51 55 53 45	-10216 -4620 -5032 -3924 -4244	-5728 -3360 -3876 -3644 -3408	7596 8412 8384 8356 7980
15224	152	388	26	16	305	3	93	0	0	1	64 76 89 101 115 129 145 158 168 184 209 253 321 395 461 510 533 532 523 512 495 472 445 417 391 368 341 304 263 222 182 139 97 59 24 -6 -33 -57 -77 -87 -97 -110 -120 -131 -145 -161 -179 -196 -209 -216	33 25 17 9 9	-9344 -15360 -16748 -16772 -12220	-4300 -5756 -7440 -6600 -6628	9004 8112 8296 6744 7736
15225	152	388	26	16	305	3	93	0	0	0	-229 -230 -229 -230 -233 -235 -243 -256 -267 -275 -280 -286 -290 -285 -264 -219 -146 -48 75 204 282 272 172 -38 -368 -757 -1087 -1269 -1263 -1089 -842 -622 -454 -326 -238 -183 -139 -95 -62 -45 -35 -22 -6 10 22 28 31 38 53 69	10 6 1 -6 -15	-5588 -3680 -3664 -5564 -11384	-5212 -4924 -4400 -5220 -4912	8284 8260 8764 8620 8548
15226	153	388	26	16	305	3	93	0	0	1	85 102 115 126 149 196 256 320 392 455 495 521 534 533 534 537 532 520 497 478 467 435 376 317 260 203 153 107 66 29 -7 -44 -87 -111 -105 -84 -55 -33 -24 -15 -8 -14 -36 -65 -89 -103 -108 -111 -120 -132	-20 -20 -19 -12 -1	-17452 -16732 -11956 -9388 -5380	-2556 -8396 -6812 -4108 -2828	7700 9292 7836 8068 7844
15227	153	388	26	16	305	3	93	0	0	0	-143 -150 -156 -162 -161 -154 -144 -137 -134 -130 -120 -92 -37 49 168 289 345 311 204 8 -292 -646 -950 -1121 -1119 -956 -722 -520 -366 -238 -157 -124 -106 -87 -74 -65 -55 -44 -37 -35 -37 -40 -41 -35 -25 -15 -5 5 20 38	4 5 9 13 13	-3068 -3352 -5324 -6488 -7000	-2096 -3136 -4224 -5576 -4584	8332 8760 7884 7948 8220
15228	153	384	26	16	305	3	93	0	0	1	58 81 107 136 168 198 222 246 280 316 340 351 345 330 316 308 300 282 254 219 178 136 96 60 29 3 -19 -34 -47 -61 -71 -72 -66 -53 -40 -41 -62 -91 -114 -131 -143 -150 -157 -171 -188 -201 -215 -233 -250 -268	14 15 14 12 10	-19260 -18380 -14256 -10748 -6420	-3220 -4928 -7192 -5924 -4996	7032 5412 5720 7768 8548
15229	153	384	26	16	305	3	93	0	0	0	-286 -293 -286 -280 -284 -288 -284 -256 -199 -124 -32 84 195 250 218 105 -76 -316 -587 -832 -995 -1034 -937 -757 -573 -420 -295 -206 -155 -119 -84 -58 -44 -33 -22 -11 -2 4 9 17 31 45 58 65 72 81 93 116 151 190	6 -1 -7 -12 -13	-3084 -4672 -5436 -6088 -9260	-4628 -4604 -4992 -5384 -6180	9252 8540 7900 8132 8752
15230	153	388	26	16	305	3	93	0	0	1	225 253 278 304 333 362 384 398 404 408 403 388 365 335 299 257 213 166 116 71 32 -4 -34 -54 -68 -81 -96 -109 -113 -111 -106 -103 -103 -106 -110 -109 -110 -117 -123 -121 -109 -89 -69 -59 -59 -62 -58 -50 -45 -43	-7 2 15 30 42	-15628 -16704 -12604 -9484 -2832	-10048 -8004 -6632 -5816 -1856	7788 5696 6900 7888 7956
15231	153	388	26	16	305	3	93	0	0	0	-45 -53 -61 -62 -46 -4 63 153 253 318 304 212 55 -160 -414 -654 -823 -885 -827 -686 -534 -407 -298 -208 -150 -122 -114 -109 -102 -97 -89 -79 -72 -69 -69 -74 -79 -75 -56 -31 -13 0 6 13 28 46 62 79 96 124	46 48 48 44 39	-4852 -4808 -5180 -8972 -19576	-2980 -3576 -3772 -6368 -8904	8572 8756 8516 8716 9840
15232	153	384	26	16	305	3	93	0	0	1	235 295 344 376 393 402 402 393 369 332 287 241 195 153 117 81 44 6 -30 -56 -72 -82 -84 -84 -82 -75 -70 -75 -86 -102 -120 -129 -130 -135 -147 -161 -176 -187 -196 -207 -223 -239 -247 -246 -248 -260 -271 -278 -285 -281	23 11 1 -9 -22	-17240 -13688 -5544 -3964 -3984	-6260 -4224 -6228 -5148 -4832	5888 6480 9072 8664 8888
15233	153	384	26	16	305	3	93	0	0	0	-264 -228 -162 -56 82 203 244 194 55 -189 -512 -828 -1046 -1116 -1032 -848 -654 -499 -370 -256 -166 -104 -68 -58 -67 -73 -60 -37 -18 -6 4 17 30 40 47 58 73 90 111 133 156 183 208 231 259 301 359 423 484 535	-32 -38 -43 -43 -35	-4272 -6244 -8712 -21616 -15716	-4656 -5032 -5736 -9816 -7796	8936 8148 8884 10760 8384
15234	153	392	26	16	305	3	93	0	0	1	570 590 597 594 580 557 527 487 436 381 323 263 207 155 111 81 55 31 18 13 6 -6 -21 -33 -36 -36 -46 -62 -76 -82 -83 -88 -93 -100 -106 -108 -111 -116 -116 -111 -103 -101 -104 -105 -109 -110 -95 -56 15 128	-25 -12 0 9 13	-16596 -9364 -6452 -4264 -4016	-9280 -5464 -3496 -2368 -3012	6392 7780 8504 8660 9012
15235	153	392	26	16	305	3	93	0	0	0	264 349 329 210 -22 -371 -777 -1133 -1343 -1345 -1139 -832 -561 -369 -231 -139 -84 -44 -17 -1 13 21 23 22 20 20 24 26 27 36 55 75 92 113 137 160 181 201 225 254 287 319 349 384 431 490 547 590 617 626	15 14 11 7 6	-5420 -5948 -7084 -29908 -16508	-4224 -4324 -5012 -6504 -7644	8480 8388 8924 9664 7076
15236	155	380	26	16	305	3	93	0	0	1	622 609 588 560 526 483 426 361 300 251 213 181 153 126 101 78 59 47 36 21 -9 -57 -112 -160 -195 -217 -233 -246 -254 -249 -230 -209 -197 -193 -195 -194 -188 -182 -177 -175 -182 -192 -194 -177 -129 -32 111 251 305 214	8 6 2 -6 -22	-13700 -10292 -6816 -5292 -2876	-8236 -6232 -6344 -4884 -4496	6248 7772 8240 8800 9128
15237	155	380	26	16	305	3	93	0	0	0	-24 -366 -732 -1032 -1185 -1172 -1008 -747 -490 -305 -187 -107 -48 -6 20 36 46 57 70 81 89 95 99 104 105 101 100 105 116 132 152 173 195 220 250 285 322 364 416 478 537 587 632 661 669 662 636 592 546 504	-40 -55 -65 -67 -61	-3804 -6092 -7928 -15908 -15616	-5412 -6804 -6960 -8028 -8872	8488 8696 9776 7032 6812
15238	155	384	26	16	305	3	93	0	0	1	415 367 322 276 223 171 132 103 87 78 59 30 3 -15 -21 -24 -34 -54 -83 -117 -149 -178 -210 -237 -248 -241 -231 -225 -225 -233 -232 -209 -173 -144 -125 -110 -96 -75 -35 31 139 290 421 440 297 -8 -414 -816 -1105 -1215	-51 -35 -20 -10 -5	-12272 -9496 -4572 -4844 -4284	-8792 -6084 -2784 -3152 -3936	7744 7552 8708 8732 8860
15239	155	384	26	16	305	3	93	0	0	0	-1139 -911 -617 -368 -197 -87 -17 27 55 70 77 86 102 118 127 130 133 133 133 137 146 159 172 185 203 223 240 257 277 301 326 352 380 411 455 515 572 617 650 666 666 655 632 596 553 511 461 405 353 308	-2 -3 -3 -2 -4	-5064 -5428 -12768 -17076 -16612	-4480 -5124 -8104 -3980 -6860	8424 8536 6704 7848 6620
15240	155	384	26	16	305	3	93	0	0	1	267 230 193 157 130 115 106 106 108 104 93 76 54 32 15 3 -8 -22 -42 -66 -81 -84 -88 -99 -115 -130 -134 -129 -124 -125 -131 -134 -125 -96 -33 73 204 288 268 146 -88 -423 -783 -1062 -1199 -1171 -997 -752 -520 -335	-1 4 6 7 10	-12472 -5664 -4224 -3608 -4100	-6092 -5952 -4860 -4368 -3544	7500 7432 8528 9344 9164
15241	155	380	26	16	305	3	93	0	0	1	-196 -106 -57 -26 2 18 20 20 25 34 47 59 72 79 81 86 98 116 135 154 176 203 235 271 307 342 379 421 474 537 601 657 697 710 696 664 620 570 518 463 404 343 290 242 195 156 128 104 79 56	9 7 8 9 13	-5708 -16072 -15024 -16160 -13780	-5900 -10004 -6768 -10348 -8056	8336 7132 7456 8376 7184
15242	155	380	26	16	305	3	93	0	0	0	44 43 50 58 53 36 18 3 -5 -10 -12 -13 -16 -20 -23 -23 -23 -28 -34 -41 -44 -41 -37 -33 -27 -19 -4 27 83 171 292 413 467 425 302 102 -182 -506 -778 -928 -927 -788 -586 -404 -259 -140 -59 -16 10 29	23 35 42 46 48	-8020 -4824 -3352 -4220 -5812	-4760 -2956 -2588 -3036 -4328	8680 9120 8512 8928 8232
15243	155	380	26	16	305	3	93	0	0	1	41 47 47 48 49 47 49 57 70 83 92 102 114 128 141 157 176 193 216 246 279 313 349 386 421 461 510 565 612 644 659 658 643 620 586 538 487 437 387 337 289 244 210 188 175 169 164 156 152 150	46 43 40 35 29	-6644 -12928 -16876 -16676 -10920	-4948 -6088 -9580 -3340 -6940	8372 6844 6088 7580 7624
15244	155	380	26	16	305	3	93	0	0	0	142 129 115 100 84 70 56 37 16 -6 -27 -43 -54 -60 -67 -78 -90 -100 -110 -117 -123 -125 -114 -80 -16 88 222 323 336 245 47 -253 -605 -910 -1089 -1108 -966 -732 -508 -338 -212 -120 -60 -21 6 19 21 23 31 43	25 18 6 -6 -17	-7472 -4756 -4260 -3996 -5216	-6588 -5640 -5148 -3976 -5372	8188 8244 8888 8552 8412
15245	155	380	26	16	305	3	93	0	0	1	61 70 80 85 89 98 114 130 145 162 181 207 241 282 324 363 401 436 466 497 544 602 657 698 718 714 688 647 598 542 482 423 370 320 271 225 183 145 113 94 89 98 116 133 136 120 96 71 48 22	-28 -33 -32 -28 -19	-7048 -29576 -16228 -13544 -9488	-6404 -12460 -9284 -6404 -6964	8700 11584 7300 6280 7408
15246	156	380	26	16	305	3	93	0	0	0	-17 -65 -108 -142 -173 -202 -222 -231 -228 -214 -202 -198 -192 -181 -169 -151 -119 -71 -2 112 276 437 521 470 236 -173 -653 -1045 -1251 -1254 -1068 -785 -528 -335 -195 -108 -62 -32 -4 14 21 29 40 42 37 41 56 75 92 105	-9 -3 -3 -5 -11	-7404 -4404 -4580 -5424 -6144	-4316 -2872 -3748 -4184 -4752	8072 8524 8660 8872 8156
15247	156	380	26	16	305	3	93	0	0	1	112 117 121 135 157 181 204 225 245 267 292 317 342 363 381 397 411 430 451 469 475 465 439 396 350 305 255 203 147 97 59 32 16 8 8 17 26 33 36 25 -1 -29 -55 -77 -97 -112 -124 -135 -146 -155	-15 -15 -13 -7 2	-8260 -15652 -16224 -13984 -9804	-5356 -2520 -5512 -5904 -6184	7748 7076 5944 6448 7732
15248	156	380	26	16	305	3	93	0	0	0	-167 -177 -179 -173 -168 -165 -163 -164 -169 -174 -173 -157 -117 -52 48 178 282 302 218 12 -325 -725 -1061 -1247 -1255 -1097 -856 -628 -444 -293 -181 -121 -89 -67 -57 -58 -59 -55 -44 -29 -16 -16 -20 -19 -12 -3 4 11 27 53	8 8 4 -3 -13	-4948 -4028 -3804 -3848 -4828	-5152 -4436 -4308 -5112 -5832	8664 8900 8696 8452 8496
15249	156	380	26	16	305	3	93	0	0	1	83 111 136 164 197 233 273 319 363 403 431 453 489 529 560 576 571 543 493 431 366 306 250 198 150 110 86 80 81 77 70 61 44 26 15 11 5 -13 -37 -60 -82 -99 -113 -127 -139 -149 -160 -165 -156 -148	-18 -18 -14 -4 10	-13944 -15804 -15424 -12424 -6872	-6940 -8896 -9924 -7280 -4188	6360 8172 6496 7504 7996
15250	156	380	26	16	305	3	93	0	0	0	-155 -169 -184 -190 -177 -148 -104 -30 90 235 324 295 152 -84 -394 -728 -1000 -1151 -1152 -998 -762 -552 -402 -296 -232 -198 -172 -144 -118 -96 -82 -78 -84 -94 -95 -88 -82 -76 -69 -58 -39 -18 -5 2 12 33 61 93 123 151	20 25 28 25 19	-5060 -4152 -3784 -6056 -10808	-3068 -2772 -3740 -4836 -5384	8564 9640 8804 7928 7528
15251	156	376	26	16	305	3	93	0	0	1	177 203 231 262 288 305 315 324 345 375 398 405 389 355 310 263 216 167 125 87 49 14 -6 -13 -10 -1 8 9 -3 -22 -47 -71 -81 -81 -80 -84 -96 -115 -136 -155 -170 -182 -193 -203 -213 -222 -226 -227 -225 -211	14 10 6 10 15	-17280 -16468 -15572 -8444 -5452	-2608 -3252 -6828 -6204 -5276	7144 7792 6500 8108 8292
15252	156	376	26	16	305	3	93	0	0	0	-117 -24 94 190 201 106 -74 -312 -583 -830 -992 -1046 -982 -823 -637 -481 -355 -253 -186 -152 -137 -131 -128 -127 -130 -131 -129 -125 -113 -101 -98 -101 -100 -93 -78 -61 -43 -24 -1 25 57 96 136 173 205 239 273 305 336 381	16 17 17 15 14	-3432 -2680 -5688 -6632 -32400	-4752 -3932 -4924 -6008 -14672	8680 9092 8676 8716 13204
15253	156	376	26	16	305	3	93	0	0	1	442 503 550 568 546 496 438 374 308 250 203 165 132 105 81 61 49 44 40 32 19 4 -10 -17 -23 -35 -50 -62 -72 -81 -91 -108 -126 -136 -140 -147 -156 -163 -167 -167 -160 -145 -119 -73 1 105 228 327 340 253	15 15 19 27 33	-15296 -16792 -10592 -7328 -4164	-8904 -8524 -5636 -4044 -2956	8480 7292 8336 7764 8308
15254	156	376	26	16	305	3	93	0	0	0	81 -164 -453 -723 -911 -983 -927 -772 -591 -437 -309 -208 -145 -112 -92 -80 -73 -67 -58 -48 -46 -50 -49 -40 -34 -30 -26 -23 -20 -14 -3 8 24 47 71 96 123 149 173 197 218 238 257 268 270 264 252 236 217 193	36 37 32 23 14	-3460 -5016 -5436 -6516 -9300	-2936 -4208 -3888 -4684 -5168	8496 8276 8496 8276 7404
15255	156	376	26	16	305	3	93	0	0	1	166 152 168 200 226 241 241 231 224 222 219 216 214 210 202 187 166 144 123 99 81 65 47 25 0 -22 -41 -58 -68 -72 -81 -94 -112 -133 -154 -168 -176 -174 -154 -108 -28 88 206 257 197 33 -227 -558 -884 -1116	6 -1 -4 -5 -8	-17144 -16080 -11776 -8348 -4908	-4328 -5932 -5352 -6024 -5636	7496 5712 7504 8288 8488
15256	158	376	26	16	305	3	93	0	0	0	-1208 -1138 -938 -703 -510 -365 -250 -169 -124 -96 -77 -64 -53 -42 -37 -37 -40 -42 -46 -50 -47 -38 -27 -14 0 17 36 57 84 117 152 186 220 253 283 313 334 347 357 364 367 365 358 367 408 466 517 541 532 498	-16 -23 -32 -38 -40	-3508 -4012 -5352 -6840 -14304	-4932 -4532 -4972 -5520 -7340	8716 8444 8096 8116 8736
15257	158	380	26	16	305	3	93	0	0	1	453 403 349 295 255 233 223 216 209 201 193 179 155 126 101 77 58 42 28 14 0 -12 -26 -52 -81 -110 -136 -151 -155 -156 -148 -124 -79 -2 118 261 371 398 306 59 -329 -760 -1096 -1233 -1134 -878 -616 -432 -321 -253	-40 -37 -29 -21 -16	-16460 -13668 -9988 -4732 -3640	-8996 -6536 -6000 -3100 -3112	7692 6744 7972 8020 8368
15258	158	376	26	16	305	3	93	0	0	1	-203 -165 -141 -132 -125 -118 -113 -109 -108 -109 -112 -114 -114 -105 -88 -72 -60 -48 -35 -22 -9 7 24 50 91 138 181 214 237 256 271 279 278 270 252 224 190 150 109 68 31 13 35 96 172 245 300 337 367 392	-12 -9 -11 -15 -18	-4236 -5240 -5440 -22628 -16792	-3632 -4176 -4188 -3948 -4564	8508 8104 8180 4508 6932
15259	158	376	26	16	305	3	93	0	0	0	395 367 330 292 253 213 174 139 103 64 26 -10 -45 -77 -101 -121 -140 -157 -171 -185 -200 -215 -227 -236 -236 -212 -156 -64 37 94 58 -109 -408 -780 -1114 -1302 -1309 -1149 -899 -665 -497 -388 -318 -272 -238 -214 -204 -205 -197 -175	-20 -21 -19 -19 -22	-17216 -12172 -7240 -5220 -4196	-5128 -7692 -5716 -4792 -4308	6428 7244 7948 8952 9172
15260	158	372	26	16	305	3	93	0	0	1	-150 -128 -115 -109 -104 -96 -87 -75 -63 -53 -44 -33 -18 0 23 53 86 120 152 184 217 250 279 299 310 315 316 312 297 269 235 204 174 145 127 133 167 213 246 257 252 242 239 242 241 233 224 216 203 186	-28 -34 -39 -38 -33	-4044 -4632 -7328 -11308 -15700	-4428 -5088 -6212 -5944 -7496	8988 8480 7856 6840 7140
15261	158	372	26	16	305	3	93	0	0	0	169 153 131 103 84 75 69 64 61 60 64 71 78 82 81 76 76 86 114 173 277 411 511 505 345 30 -367 -710 -891 -892 -743 -519 -321 -186 -96 -39 -3 22 36 44 55 70 82 90 96 102 107 113 122 132	-24 -9 5 12 15	-15404 -10944 -7588 -5140 -4152	-8008 -4908 -4516 -3776 -3852	6716 7768 7888 8016 8388
15262	158	372	26	16	305	3	93	0	0	1	142 152 158 166 181 202 228 258 289 324 361 399 433 462 484 501 512 512 504 488 462 429 390 346 300 256 212 168 130 95 64 39 23 20 30 49 90 170 280 387 471 525 554 570 574 560 526 487 455 427	17 14 9 8 8	-4836 -5636 -6264 -13240 -17140	-3528 -3936 -4436 -5468 -4752	8360 8316 7168 6516 7220
15263	158	372	26	16	305	3	93	0	0	0	395 359 325 298 276 257 243 230 213 196 191 209 261 360 471 521 475 319 38 -336 -708 -968 -1036 -890 -620 -358 -176 -69 -3 44 76 94 105 116 124 123 117 110 107 110 111 105 106 116 129 141 152 164 180 207	9 14 19 18 12	-14436 -10644 -7872 -5200 -4112	-6620 -5956 -5804 -5448 -4528	6872 7552 8480 8956 8884
15264	158	372	26	16	305	3	93	0	0	1	241 275 306 340 375 409 437 454 462 466 470 471 461 442 412 368 321 276 232 188 151 113 74 40 13 -8 -21 -19 4 38 68 100 158 242 329 411 463 468 449 415 364 309 268 240 216 196 178 161 149 142	1 -15 -28 -35 -35	-4292 -4712 -5456 -13560 -15792	-5164 -5724 -6136 -5604 -9920	8600 8184 8092 7472 6896
15265	158	372	26	16	305	3	93	0	0	0	136 125 115 112 124 163 245 366 468 472 350 103 -243 -603 -865 -978 -932 -748 -514 -321 -187 -100 -44 -8 16 29 30 24 15 8 8 13 18 17 12 8 6 10 22 38 51 62 71 84 106 130 161 198 233 261	-30 -17 -5 1 6	-13468 -10628 -7876 -4472 -4672	-6976 -7276 -3956 -3212 -3116	6700 7412 7996 8464 8780
15266	160	372	26	16	305	3	93	0	0	1	293 301 304 296 274 245 218 194 168 138 102 65 26 -19 -63 -99 -125 -142 -152 -151 -138 -123 -111 -98 -92 -95 -100 -105 -99 -74 -30 19 60 86 97 92 74 55 36 13 -8 -25 -37 -41 -39 -37 -34 -7 58 164	11 11 13 15 16	-4868 -5708 -29312 -15324 -16388	-4136 -4844 -4260 -6276 -4356	8284 7512 9512 7112 6532
15267	160	372	26	16	305	3	93	0	0	0	281 335 279 105 -165 -485 -784 -996 -1082 -1027 -857 -648 -466 -329 -232 -165 -117 -87 -74 -71 -72 -70 -66 -64 -66 -65 -63 -62 -62 -58 -50 -35 -21 -12 -6 3 22 51 80 107 131 152 172 194 213 222 222 215 201 183	20 26 27 22 15	-12776 -9500 -4996 -4128 -3752	-6420 -5916 -4996 -4356 -4704	6996 8304 8776 8888 8892
15268	160	376	26	16	305	3	93	0	0	1	167 148 119 84 49 15 -18 -50 -79 -102 -116 -121 -121 -115 -102 -85 -68 -57 -54 -52 -46 -43 -45 -42 -22 21 73 121 155 168 165 159 147 129 106 84 67 56 60 85 130 204 316 434 494 466 343 105 -225 -558	5 -4 -6 -3 3	-4704 -7768 -21468 -14612 -16740	-4992 -5536 -11584 -7760 -8984	8536 7812 9936 10228 6656
15269	160	376	26	16	305	3	93	0	0	0	-798 -881 -791 -598 -402 -250 -140 -59 -2 32 53 70 85 93 97 103 104 107 113 116 120 124 128 133 142 152 159 167 180 196 208 219 230 245 264 288 311 323 324 315 294 265 233 199 163 127 96 69 35 -3	15 30 40 47 54	-10376 -6948 -4208 -3444 -4664	-5240 -3336 -3020 -3488 -4048	7980 8328 8652 8196 8564
15270	160	372	26	16	305	3	93	0	0	1	-45 -86 -119 -136 -142 -145 -138 -124 -111 -99 -92 -93 -99 -105 -108 -109 -110 -113 -120 -129 -136 -138 -136 -123 -98 -71 -50 -32 -16 -2 7 10 18 45 107 212 336 417 404 284 62 -231 -531 -763 -874 -844 -703 -518 -348 -215	54 49 44 41 38	-5800 -7696 -24524 -15760 -14124	-3896 -4252 -4780 -4988 -5652	7932 8368 8020 8048 6540
15271	160	372	26	16	305	3	93	0	0	1	-115 -45 -6 10 15 15 10 9 21 41 52 53 50 51 64 81 92 102 117 134 153 173 196 221 245 264 283 309 341 369 377 368 352 339 327 307 280 250 222 195 162 119 78 45 18 -5 -32 -57 -69 -63	35 30 22 9 -5	-10876 -7240 -5080 -3512 -5044	-6444 -6264 -5468 -4360 -4312	7992 8328 8524 9024 8492
