7173	0	500	5	0	0	0	0	0	0	0	128 124 118 114 110 105 102 101 101 101 103 105 107 109 115 121 126 130 133 137 141 146 154 167 195 245 323 419 489 470 342 119 -154 -409 -579 -620 -529 -333 -97 101 232 306 341 351 346 334 324 320 319 319	0 1 1 2 2	-9404 -9448 -9380 -9356 -9352	-5084 -5180 -5120 -5120 -5092	7760 7708 7752 7712 7796
7174	0	496	5	0	0	1	0	0	0	1	321 322 324 324 326 329 332 336 340 346 354 363 372 383 395 408 424 441 460 478 496 512 528 535 533 525 511 494 477 459 441 421 400 378 353 329 309 293 280 268 259 252 248 248 251 259 268 277 286 295	2 2 2 1 1	-9364 -9376 -9332 -9352 -9404	-5132 -5136 -5148 -5132 -5192	7772 7640 7704 7756 7816
7175	0	496	5	0	0	1	0	0	0	0	304 313 323 332 338 342 345 346 347 348 349 351 355 360 365 371 376 381 385 389 395 401 404 404 399 390 381 376 370 363 360 359 359 361 363 364 366 370 374 378 381 383 385 388 390 395 408 433 476 550	0 0 -1 -1 -1	-9376 -9432 -9436 -9480 -9496	-5208 -5068 -5016 -5008 -4792	7732 7788 7796 7864 7928
7176	123	496	5	0	0	1	0	0	0	0	651 732 724 601 367 66 -216 -399 -431 -303 -59 207 416 544 607 630 636 630 615 601 592 584 577 580 588 590 587 584 581 580 583 584 586 590 595 601 608 617 628 641 655 669 682 694 704 711 712 711 706 697	-1 -1 -2 -2 -2	-9528 -9436 -9444 -9504 -9420	-4760 -4676 -4720 -4508 -4336	7968 8108 7888 8056 8132
7177	123	496	5	23	0	1	0	0	0	1	686 670 651 631 610 587 563 538 513 491 471 453 435 416 398 384 376 375 382 389 392 393 397 403 411 417 418 417 419 425 431 433 430 425 420 419 420 421 422 423 426 429 431 431 426 420 419 420 424 427	-2 -3 -2 -2 -2	-9516 -9600 -9496 -9412 -9396	-4288 -4324 -4352 -4240 -4208	8004 8032 7848 7972 8004
7178	123	496	5	23	315	1	0	0	0	0	425 418 410 402 392 381 371 363 359 357 356 356 355 359 364 365 365 362 360 359 359 357 357 364 385 428 497 585 646 633 531 332 59 -225 -434 -499 -394 -157 116 326 450 508 525 520 505 484 462 445 433 422	-1 0 1 1 2	-9452 -9588 -9456 -9456 -9416	-4152 -4124 -4256 -4292 -4340	7948 8020 7912 8000 7820
7179	123	508	5	23	315	1	0	0	0	1	412 407 406 406 404 402 399 397 397 395 392 389 389 391 394 399 406 414 421 430 443 453 455 450 439 427 413 398 380 359 339 316 290 261 233 207 183 156 128 99 72 48 27 12 2 -4 -7 -9 -11 -15	3 3 2 2 1	-9152 -9372 -9560 -9412 -9340	-4412 -4244 -4288 -4224 -4464	8108 7692 7616 7648 7616
7180	123	508	5	23	315	1	0	0	0	0	-17 -16 -15 -15 -17 -22 -28 -33 -38 -44 -51 -58 -65 -73 -80 -84 -87 -93 -98 -103 -107 -109 -112 -116 -123 -130 -131 -128 -126 -127 -137 -151 -165 -177 -187 -197 -206 -212 -218 -224 -231 -236 -240 -243 -248 -256 -264 -270 -274 -278	1 2 2 3 4	-9248 -9160 -9504 -10048 -10260	-4400 -4300 -4352 -4696 -5356	7636 7600 7684 7876 7792
7181	123	508	5	23	315	1	0	0	0	0	-288 -286 -277 -252 -204 -131 -66 -63 -144 -318 -579 -869 -1102 -1200 -1128 -911 -641 -422 -287 -219 -188 -177 -181 -195 -210 -222 -231 -236 -243 -249 -252 -252 -251 -248 -247 -245 -241 -235 -229 -223 -219 -215 -207 -199 -192 -186 -181 -174 -164 -153	5 4 1 -3 -7	-9868 -9900 -9124 -9216 -9528	-4964 -5548 -5648 -6000 -6000	7872 7988 8088 8296 8192
7182	123	516	5	23	315	1	94	0	0	1	-142 -134 -131 -131 -135 -143 -154 -170 -188 -205 -225 -249 -275 -301 -324 -339 -350 -364 -381 -398 -412 -420 -422 -421 -418 -414 -407 -402 -400 -399 -399 -401 -404 -407 -409 -408 -407 -406 -410 -416 -421 -424 -426 -426 -430 -433 -435 -435 -434 -433	-11 -14 -17 -18 -18	-9180 -9036 -8796 -8708 -8980	-5864 -5776 -5728 -5748 -5748	8024 8056 7932 7988 7844
7183	123	516	5	23	315	1	94	0	0	0	-434 -439 -444 -446 -445 -440 -432 -427 -430 -438 -446 -453 -456 -455 -453 -453 -453 -453 -453 -451 -450 -447 -441 -438 -439 -442 -447 -449 -448 -442 -430 -407 -364 -295 -201 -110 -85 -170 -364 -637 -929 -1150 -1227 -1158 -969 -720 -503 -363 -287 -253	-17 -14 -11 -7 -3	-9212 -9380 -9228 -9352 -9600	-5648 -5508 -5528 -5496 -5616	7752 7696 7724 7764 7836
7184	123	520	5	23	315	1	94	0	0	1	-247 -255 -267 -280 -292 -298 -299 -299 -298 -297 -296 -297 -297 -296 -294 -292 -287 -279 -272 -270 -268 -266 -260 -251 -240 -228 -216 -201 -185 -172 -162 -154 -149 -147 -150 -158 -171 -185 -201 -219 -239 -262 -284 -306 -328 -347 -366 -384 -400 -415	-1 -1 -4 -10 -18	-9696 -10560 -10604 -10112 -9312	-5688 -5704 -5488 -5028 -4400	7584 7412 7972 8108 8356
7185	123	520	5	23	315	1	94	0	0	0	-428 -436 -438 -434 -430 -427 -424 -422 -417 -408 -401 -395 -390 -384 -379 -374 -371 -369 -366 -363 -361 -358 -353 -347 -341 -338 -338 -339 -339 -337 -331 -326 -322 -323 -330 -339 -346 -350 -353 -353 -353 -353 -352 -353 -357 -359 -358 -353 -349 -347	-26 -31 -31 -21 -2	-8876 -9280 -8980 -8728 -8508	-4204 -4788 -5316 -4996 -4888	8268 7852 7692 7676 7724
7186	121	520	5	23	315	2	94	0	0	0	-346 -344 -342 -339 -334 -326 -312 -284 -240 -175 -91 -7 16 -60 -221 -441 -685 -897 -1019 -1026 -924 -737 -524 -356 -249 -183 -151 -143 -143 -144 -150 -159 -165 -167 -169 -174 -178 -182 -182 -181 -180 -178 -177 -173 -166 -158 -148 -138 -129 -117	22 48 73 91 101	-8348 -8612 -8780 -9292 -10020	-4940 -5044 -5080 -5108 -5276	7512 7716 7388 7500 7280
7187	121	504	5	23	315	2	94	0	0	1	-104 -90 -74 -55 -35 -16 -1 9 16 21 26 29 28 18 2 -17 -38 -61 -85 -109 -133 -154 -174 -190 -198 -197 -194 -195 -196 -198 -199 -196 -191 -187 -184 -180 -176 -174 -172 -169 -169 -170 -172 -175 -175 -175 -173 -173 -173 -169	106 105 100 92 80	-10368 -11356 -10796 -10012 -9524	-5260 -5468 -5700 -5504 -6004	7184 7844 8284 9048 8416
7188	121	504	5	23	315	2	94	0	0	0	-158 -153 -153 -153 -150 -143 -134 -127 -124 -124 -126 -127 -128 -131 -134 -136 -137 -137 -136 -134 -132 -132 -130 -129 -128 -126 -126 -126 -125 -123 -118 -105 -79 -34 36 134 236 287 240 80 -185 -500 -776 -926 -915 -755 -503 -261 -95 -1	66 51 39 29 23	-8924 -8940 -8696 -8236 -8068	-6056 -5692 -5108 -5152 -5436	8328 8052 7972 7688 7540
7189	121	504	5	23	315	2	94	0	0	1	47 67 70 66 56 48 43 39 34 32 32 34 36 37 42 49 53 54 55 59 67 75 79 85 94 105 119 133 144 153 163 171 176 177 171 158 143 128 110 88 64 41 16 -8 -30 -50 -67 -80 -89 -100	20 18 15 13 11	-8496 -8732 -9552 -9528 -9696	-5424 -5472 -5152 -5476 -6016	7728 7564 7400 7356 7636
7190	121	504	5	23	315	2	94	0	0	0	-112 -122 -130 -137 -139 -138 -137 -135 -131 -127 -122 -115 -108 -101 -94 -88 -82 -78 -72 -68 -61 -55 -52 -52 -53 -53 -51 -50 -52 -57 -61 -61 -57 -53 -51 -55 -65 -75 -86 -96 -103 -105 -103 -101 -102 -105 -109 -108 -105 -100	11 11 12 11 7	-10184 -10948 -10108 -10032 -9412	-5668 -5492 -4388 -4448 -4704	7264 7644 8256 8228 8124
7191	121	504	5	23	315	2	94	0	0	0	-96 -94 -94 -95 -97 -99 -98 -92 -77 -48 -1 76 179 272 295 219 29 -263 -584 -831 -928 -856 -643 -375 -157 -23 49 81 87 84 75 63 52 47 44 39 33 29 28 28 27 29 35 43 48 50 54 59 65 72	2 -3 -8 -12 -15	-9160 -8540 -8552 -8412 -8216	-5200 -5240 -4780 -4712 -4696	7908 8256 7844 7900 7876
7192	121	508	5	23	315	2	94	0	0	1	78 87 101 118 134 149 164 178 189 195 195 188 178 164 147 126 103 77 48 19 -10 -35 -53 -70 -90 -111 -129 -143 -150 -152 -152 -151 -148 -144 -139 -132 -124 -116 -108 -101 -95 -90 -85 -83 -81 -79 -76 -74 -72 -68	-16 -15 -13 -10 -7	-9104 -9640 -10028 -10020 -9936	-4948 -5020 -5064 -5392 -5580	7584 7472 7484 7480 7112
7193	121	508	5	23	315	2	94	0	0	0	-65 -64 -61 -56 -53 -52 -52 -52 -49 -44 -40 -40 -45 -51 -56 -61 -63 -62 -59 -59 -61 -64 -71 -81 -90 -97 -102 -105 -107 -106 -105 -102 -98 -95 -91 -79 -58 -22 44 139 229 266 209 27 -260 -572 -805 -878 -778 -553	-4 -3 -4 -9 -16	-10780 -9832 -9184 -9356 -9300	-6020 -5620 -6068 -6628 -5748	7872 8752 9072 8780 8336
7194	121	508	5	23	315	2	94	0	0	1	-303 -114 -2 53 73 77 75 64 48 33 24 17 12 11 11 11 11 12 15 21 26 31 35 43 53 60 68 77 88 102 116 129 142 154 165 173 176 174 169 157 140 117 93 72 52 31 7 -18 -43 -67	-23 -28 -30 -29 -24	-8936 -8712 -8212 -7880 -8340	-5644 -4972 -5084 -5588 -5564	7808 7908 7808 7792 7688
7195	121	508	5	23	315	2	94	0	0	0	-88 -107 -122 -137 -147 -156 -164 -170 -172 -170 -167 -163 -158 -153 -145 -136 -128 -123 -116 -106 -100 -100 -102 -104 -105 -106 -109 -113 -114 -112 -109 -109 -110 -112 -112 -109 -103 -96 -89 -87 -89 -93 -98 -105 -110 -115 -118 -120 -122 -124	-19 -13 -8 -3 1	-9164 -9708 -9668 -9628 -11272	-5560 -5524 -5700 -5972 -5920	7732 7740 7572 7484 7452
7196	120	508	5	23	315	2	94	0	0	0	-124 -120 -115 -110 -107 -104 -99 -92 -86 -85 -85 -82 -65 -30 27 113 213 282 273 143 -119 -457 -764 -935 -924 -750 -495 -269 -125 -52 -24 -20 -24 -30 -39 -47 -49 -49 -52 -57 -58 -59 -60 -60 -59 -57 -57 -58 -56 -52	3 3 1 -3 -7	-11188 -10384 -9960 -9512 -8980	-5508 -5196 -4848 -5144 -5576	8196 8880 8012 8304 8048
7197	120	508	5	23	315	2	94	0	0	1	-46 -38 -29 -20 -11 1 14 25 37 49 60 69 74 75 71 64 52 36 16 -4 -19 -34 -55 -83 -114 -143 -165 -183 -199 -213 -224 -232 -237 -240 -242 -242 -239 -234 -226 -215 -202 -190 -179 -172 -168 -164 -159 -155 -152 -147	-10 -13 -15 -15 -14	-8436 -7992 -7952 -8332 -8624	-5524 -5280 -5004 -5048 -5024	7932 7768 7688 7548 7452
7198	120	508	5	23	315	2	94	0	0	0	-145 -144 -140 -134 -130 -126 -125 -124 -124 -125 -125 -124 -123 -119 -113 -104 -100 -104 -112 -123 -134 -139 -141 -141 -142 -143 -145 -146 -147 -147 -146 -144 -142 -139 -135 -131 -128 -125 -122 -115 -98 -67 -13 68 170 239 212 73 -151 -417	-12 -10 -8 -6 -4	-9244 -9968 -9900 -10148 -10652	-5340 -5648 -5692 -5688 -5816	7400 7236 7124 7016 7024
7199	120	508	5	23	315	2	94	0	0	0	-665 -831 -880 -811 -639 -413 -215 -83 -6 34 46 44 37 25 9 -5 -14 -19 -24 -28 -30 -30 -27 -25 -28 -30 -36 -40 -39 -36 -32 -25 -17 -8 4 19 38 59 78 91 101 108 110 109 103 93 79 62 42 18	-4 -6 -10 -15 -19	-9524 -9196 -9184 -9668 -8864	-6048 -6324 -6576 -6388 -5404	8556 8768 8660 8152 7792
7200	120	512	5	23	315	2	94	0	0	1	-10 -37 -65 -92 -118 -139 -156 -171 -186 -201 -214 -223 -226 -226 -223 -219 -212 -203 -193 -184 -173 -163 -153 -144 -135 -129 -125 -120 -112 -104 -100 -100 -101 -101 -100 -97 -94 -96 -98 -97 -94 -87 -78 -70 -71 -76 -81 -86 -91 -96	-22 -21 -19 -14 -9	-8668 -8172 -7592 -7872 -9072	-5496 -5484 -5540 -5604 -5684	7744 7660 7756 7728 7404
7201	120	512	5	23	315	2	94	0	0	0	-101 -105 -107 -109 -111 -115 -118 -117 -113 -110 -107 -105 -104 -105 -105 -104 -99 -86 -61 -20 46 142 243 294 247 76 -205 -525 -789 -917 -879 -698 -446 -218 -60 30 70 85 89 85 74 64 56 50 45 43 44 44 42 43	-3 2 6 9 10	-9588 -9504 -9648 -10944 -10680	-5580 -5704 -5648 -6040 -5504	7540 7336 7488 7392 8464
7202	120	512	5	23	315	2	94	0	0	1	44 44 45 45 45 45 47 49 54 60 68 75 83 90 98 106 112 118 126 130 126 116 99 79 59 39 17 -8 -33 -58 -81 -101 -117 -131 -144 -155 -163 -168 -173 -177 -179 -181 -180 -178 -174 -165 -156 -148 -140 -131	9 5 -2 -8 -14	-10276 -10156 -9668 -8964 -8220	-5172 -4828 -5108 -5632 -5500	9048 8792 8236 7760 7748
7203	120	512	5	23	315	2	94	0	0	0	-113 -105 -99 -96 -95 -93 -92 -91 -91 -93 -95 -95 -95 -95 -94 -92 -92 -95 -98 -97 -89 -78 -68 -61 -57 -60 -68 -78 -88 -93 -93 -91 -90 -90 -92 -94 -96 -96 -95 -93 -92 -92 -92 -92 -92 -91 -84 -70 -42 9	-17 -18 -16 -13 -9	-8028 -8000 -8656 -8712 -9548	-5180 -4888 -5132 -5236 -5300	7776 7568 7272 7468 7588
7204	120	512	5	23	315	2	94	0	0	0	91 185 239 208 76 -146 -425 -694 -865 -890 -765 -529 -274 -86 23 78 99 102 100 99 95 88 84 80 75 72 71 69 66 63 63 64 65 66 67 69 72 79 87 96 104 113 122 130 138 146 152 157 158 155	-6 -5 -5 -7 -12	-9968 -11636 -10940 -10020 -9204	-5516 -5740 -6320 -5960 -6168	7252 8168 7800 8120 8212
7205	120	520	5	23	315	2	94	0	0	1	148 140 130 117 103 86 65 40 14 -10 -32 -52 -71 -88 -101 -113 -124 -137 -150 -161 -166 -168 -169 -167 -164 -160 -154 -147 -142 -136 -133 -131 -128 -126 -124 -120 -115 -110 -106 -104 -102 -100 -97 -94 -89 -86 -81 -77 -75 -75	-16 -19 -19 -15 -10	-8712 -8264 -8572 -8684 -8404	-6044 -5508 -5320 -5356 -5536	7920 8024 8028 8008 7848
7206	118	520	5	23	315	2	94	0	0	0	-74 -71 -65 -56 -49 -47 -47 -49 -53 -57 -61 -62 -61 -60 -59 -60 -62 -63 -62 -60 -54 -48 -45 -45 -47 -52 -55 -55 -51 -40 -21 16 83 170 234 228 121 -90 -361 -609 -751 -746 -607 -383 -164 -19 55 86 92 92	-5 0 4 6 6	-8704 -9020 -9356 -9560 -10168	-5544 -5472 -5400 -5680 -5796	7664 7836 7816 7980 7316
7207	118	528	5	23	315	2	94	0	0	1	92 87 78 73 72 70 67 65 65 67 68 69 68 66 65 69 78 84 86 86 87 92 101 109 115 123 131 137 141 142 139 133 125 117 108 97 82 64 46 28 9 -10 -30 -50 -68 -83 -97 -110 -121 -130	5 3 -1 -6 -12	-10652 -10728 -10616 -9828 -9772	-5292 -4540 -4392 -4744 -5308	8116 8540 8616 8412 8076
7208	118	528	5	23	315	2	94	0	0	0	-136 -140 -142 -142 -139 -135 -126 -118 -112 -106 -100 -96 -92 -88 -85 -83 -83 -83 -85 -86 -86 -83 -79 -78 -81 -84 -86 -86 -85 -84 -86 -89 -88 -83 -75 -68 -64 -65 -71 -79 -86 -88 -87 -88 -86 -81 -75 -69 -67 -66	-18 -23 -27 -29 -29	-9064 -8620 -8496 -7992 -8292	-5376 -5376 -4812 -4708 -4968	7624 7816 7776 7668 7596
7209	118	528	5	23	315	2	94	0	0	0	-66 -62 -55 -49 -46 -46 -45 -45 -43 -36 -24 -5 26 78 151 230 272 238 118 -76 -318 -552 -705 -732 -632 -437 -212 -29 88 152 179 181 176 173 170 161 152 149 147 145 143 143 142 139 136 135 137 141 147 154	-27 -25 -21 -17 -12	-8580 -8748 -10084 -9884 -10120	-5320 -5388 -5292 -5504 -5816	7444 7656 7444 7248 7276
7210	118	528	5	23	315	2	94	0	0	1	171 183 197 215 235 253 269 283 296 308 316 320 321 319 313 304 289 271 251 230 209 188 169 152 131 110 89 71 58 51 47 47 49 56 65 75 84 93 101 109 118 128 137 144 152 159 166 174 181 186	-8 -6 -6 -10 -13	-10624 -9280 -9364 -9764 -9828	-6248 -5372 -6404 -6488 -6080	7704 8724 8764 8320 7984
7211	118	528	5	23	315	2	94	0	0	0	191 194 195 195 195 194 193 196 202 206 209 212 216 221 226 229 233 240 249 258 262 260 255 248 240 231 223 218 218 220 223 226 229 233 240 247 255 263 269 273 276 282 290 303 326 358 402 466 551 625	-15 -16 -14 -10 -5	-9460 -8760 -8148 -7968 -9164	-5552 -5724 -5772 -5908 -5916	8004 7996 8088 8116 7760
7212	118	528	5	23	315	2	94	0	0	0	632 544 360 100 -185 -408 -497 -437 -246 13 242 388 465 501 509 507 504 497 489 482 479 480 478 479 484 488 487 487 486 489 495 500 503 506 511 518 527 539 554 573 591 610 629 646 660 670 675 674 671 664	0 6 11 15 19	-9180 -9276 -9476 -10832 -10304	-5860 -6052 -6156 -5864 -4776	7716 7916 7796 8576 9344
7213	118	536	5	23	315	2	94	0	0	1	653 634 613 590 564 535 506 479 452 428 405 385 367 355 345 337 332 331 338 352 367 376 381 382 384 390 398 405 411 417 422 424 425 427 429 430 430 429 428 427 425 422 420 419 420 422 424 427 431 434	20 17 11 3 -5	-10852 -10424 -9688 -8380 -7944	-4796 -5236 -5284 -5400 -5376	9020 8384 8268 7880 7788
7214	118	536	5	23	315	2	94	0	0	0	433 431 430 432 438 447 453 456 455 452 446 437 428 421 420 424 425 424 421 419 423 428 431 432 434 437 442 446 450 456 467 486 518 574 660 757 808 765 622 395 118 -149 -322 -352 -243 -27 220 414 533 600	-12 -16 -19 -19 -16	-7820 -8152 -8424 -9220 -9684	-5436 -5480 -5304 -5780 -5820	7680 7668 7320 7196 7160
7215	118	548	5	23	315	2	94	0	0	1	631 636 629 621 608 591 578 573 569 565 563 564 564 562 557 554 554 555 556 557 562 571 577 579 579 579 584 593 604 615 625 635 643 646 643 638 633 623 608 591 572 551 527 500 472 444 418 394 373 352	-12 -7 -2 3 6	-9640 -10004 -10400 -10056 -9704	-5940 -5980 -6168 -6068 -6220	7208 7088 7428 8348 8548
7216	116	548	5	23	315	2	94	0	0	0	335 322 311 303 296 290 287 285 283 282 281 285 293 302 309 319 331 335 335 334 331 330 332 333 332 331 335 340 342 339 336 333 334 338 342 344 341 337 339 343 346 347 346 341 334 328 320 313 306 301	7 6 5 5 6	-9620 -9732 -9068 -8340 -7956	-6960 -6004 -5396 -5140 -5268	8596 7792 7608 7704 7740
7217	116	548	5	23	315	2	94	0	0	0	297 293 289 286 285 284 285 285 285 286 288 289 288 285 285 293 315 354 414 499 587 629 579 431 210 -45 -285 -445 -486 -408 -236 -23 160 280 351 391 402 396 387 376 364 354 349 344 336 328 323 320 315 310	8 13 19 25 32	-7736 -8204 -8820 -9296 -9464	-5576 -5824 -5724 -5780 -5836	7700 7536 7512 7292 7364
7218	116	540	5	23	315	2	94	0	0	1	305 303 301 302 306 313 322 331 340 349 360 374 392 409 423 434 445 451 453 452 445 433 417 397 375 350 324 296 269 245 225 208 194 181 168 156 146 139 136 136 134 133 133 134 135 136 138 141 146 153	38 43 46 47 44	-9612 -10872 -11156 -10400 -9944	-5716 -5804 -5524 -5328 -5000	7188 7220 7676 8432 7884
7219	116	540	5	23	315	2	94	0	0	0	159 165 171 178 185 190 197 202 206 209 213 217 221 224 226 229 233 238 242 245 246 245 248 256 264 268 268 261 254 250 246 241 236 236 259 315 383 439 471 479 476 477 482 484 480 478 478 475 473 475	37 28 19 9 1	-9816 -9548 -8680 -7920 -7892	-5140 -5452 -5452 -5352 -5064	7780 7816 7652 7708 7528
7220	116	540	5	23	315	2	94	0	0	0	489 518 563 631 722 802 804 695 498 248 -11 -227 -352 -364 -255 -52 172 349 464 529 556 560 553 541 525 510 497 488 481 475 470 467 464 459 454 450 449 450 451 453 455 458 464 471 478 487 498 511 527 540	-4 -7 -8 -7 -5	-8240 -8380 -9380 -9880 -10212	-5092 -5108 -5724 -5828 -5864	7376 7500 7168 6996 6804
7221	116	540	0	23	315	2	94	0	0	1	547 551 554 555 552 543 529 512 492 470 445 417 389 361 333 306 282 263 248 236 225 215 208 207 213 221 224 225 224 223 226 230 236 243 249 255 259 262 264 267 267 266 264 264 265 265 263 261 258 253	-2 0 2 2 0	-10036 -10456 -9520 -9208 -9580	-5784 -6144 -5728 -6324 -6492	6652 7128 8260 8520 8104
7222	116	540	0	23	315	2	94	0	0	0	249 246 242 240 237 232 230 230 230 227 224 223 227 234 242 243 238 232 227 226 226 223 220 217 213 210 207 204 200 198 196 195 196 195 193 191 191 197 215 248 299 376 476 558 558 444 234 -32 -302 -518	-4 -7 -10 -10 -7	-9748 -9208 -8724 -8012 -7988	-6096 -5444 -5576 -5532 -5852	7824 7440 7080 7352 7644
7223	116	540	0	23	315	2	94	0	0	0	-630 -617 -477 -248 -12 164 269 325 346 346 337 323 309 300 301 304 303 298 291 283 279 280 281 282 285 286 287 288 291 295 304 316 327 340 351 363 377 392 404 412 416 414 408 398 385 367 348 326 300 271	-2 4 10 17 23	-8020 -8360 -8736 -9372 -9648	-5756 -5616 -5336 -5272 -5548	7620 7748 7488 7096 7108
7224	116	552	0	23	315	2	94	0	0	1	240 208 177 148 118 90 65 47 36 32 31 31 33 39 48 57 66 73 80 89 103 117 126 130 128 122 117 116 116 116 113 109 103 96 90 85 82 79 76 72 68 67 67 66 64 63 66 71 78 85	28 31 31 27 21	-11144 -11280 -10604 -10052 -9008	-5300 -5328 -4784 -4568 -4776	7152 7852 8008 8044 7908
7225	116	552	0	23	315	2	94	0	0	0	93 94 95 99 104 108 111 110 106 103 98 92 90 90 93 98 98 94 88 83 81 81 82 81 79 79 79 79 78 83 103 140 200 290 386 428 365 198 -43 -314 -561 -729 -782 -710 -525 -287 -82 58 144 188	13 6 0 -4 -7	-8488 -8104 -8172 -8604 -8732	-5072 -4940 -4796 -4716 -4636	7764 7808 7664 7416 7024
7226	113	572	0	23	315	2	94	0	0	1	203 202 195 183 170 159 150 141 133 127 123 117 110 105 103 102 100 100 100 102 107 119 135 146 156 166 178 192 206 217 223 227 231 231 228 223 212 196 177 155 131 109 87 64 38 14 -8 -28 -43 -54	-8 -7 -6 -5 -5	-9024 -9564 -9628 -10392 -11252	-4872 -5148 -5264 -5308 -5940	7300 7088 7412 6776 7136
7227	113	572	0	23	315	2	94	0	0	0	-63 -70 -74 -75 -75 -75 -71 -65 -57 -46 -36 -29 -23 -19 -16 -15 -10 -6 -7 -14 -23 -32 -39 -45 -52 -58 -62 -62 -61 -62 -63 -62 -62 -63 -66 -71 -78 -86 -94 -100 -103 -102 -96 -90 -84 -79 -76 -76 -76 -74	-6 -10 -15 -22 -29	-10796 -9880 -9580 -9416 -8992	-5612 -5856 -6112 -5728 -5216	7932 8124 7912 7692 7888
7228	113	572	0	23	315	2	94	0	0	0	-70 -64 -58 -60 -68 -77 -86 -94 -102 -108 -112 -113 -115 -118 -123 -127 -129 -130 -130 -131 -131 -130 -125 -118 -114 -109 -96 -68 -17 64 165 239 225 104 -110 -385 -660 -867 -952 -905 -739 -503 -279 -121 -28 21 34 31 26 18	-32 -32 -29 -23 -15	-8628 -7820 -7740 -8072 -8708	-5240 -5328 -5620 -5736 -5748	7564 7656 7580 7288 7156
7229	113	584	0	23	315	2	94	0	0	1	6 -5 -11 -20 -32 -44 -53 -57 -60 -61 -61 -61 -60 -59 -55 -49 -41 -30 -15 -2 8 17 26 38 53 68 77 82 86 86 82 75 64 49 29 6 -20 -46 -74 -101 -130 -156 -179 -200 -218 -233 -244 -252 -259 -264	-7 0 7 14 20	-9564 -9792 -9776 -11136 -10424	-5840 -5568 -5736 -5940 -5312	6708 7212 7216 6504 7128
7230	113	584	0	23	315	2	94	0	0	0	-267 -265 -259 -249 -240 -233 -227 -221 -214 -207 -200 -197 -197 -199 -202 -204 -204 -204 -204 -205 -205 -202 -199 -196 -192 -190 -194 -199 -204 -208 -208 -207 -207 -208 -209 -206 -200 -197 -197 -194 -191 -189 -190 -191 -192 -190 -185 -179 -176 -177	23 25 25 23 20	-10156 -9480 -9392 -9380 -8380	-4524 -4640 -4656 -5208 -5284	8296 7892 7632 7700 7628
7231	113	584	0	23	315	2	94	0	0	0	-180 -186 -195 -203 -207 -208 -207 -205 -207 -209 -209 -207 -205 -200 -194 -189 -184 -180 -175 -165 -150 -131 -102 -55 21 116 177 145 6 -222 -498 -758 -929 -969 -880 -688 -451 -249 -117 -37 5 18 18 14 4 -9 -14 -16 -19 -24	15 10 4 -2 -6	-8092 -8268 -8348 -8508 -9372	-5068 -5012 -5020 -5264 -5236	7464 7288 7356 7028 7380
7232	113	580	0	23	315	2	94	0	0	1	-28 -28 -29 -30 -30 -28 -27 -23 -17 -8 1 6 12 22 37 52 66 77 87 100 113 124 129 129 126 117 105 90 73 54 32 7 -21 -50 -79 -103 -125 -141 -152 -161 -168 -176 -186 -194 -200 -202 -200 -197 -194 -191	-11 -14 -17 -21 -24	-9748 -9896 -10012 -10964 -10124	-5340 -5588 -5744 -5920 -5796	6972 6776 6764 7920 8556
7233	113	580	0	23	315	2	94	0	0	0	-188 -184 -180 -177 -174 -170 -166 -161 -155 -151 -151 -153 -153 -152 -152 -150 -150 -151 -148 -141 -132 -127 -128 -131 -133 -134 -133 -131 -131 -132 -132 -130 -127 -123 -119 -118 -122 -129 -135 -139 -142 -142 -140 -138 -140 -144 -149 -153 -152 -148	-28 -31 -34 -34 -30	-9704 -9536 -9112 -8736 -8284	-6160 -6036 -5604 -5312 -4904	8556 8260 8008 7828 7880
7234	113	580	0	23	315	2	94	0	0	0	-146 -144 -142 -139 -137 -135 -133 -125 -110 -83 -43 15 97 191 257 242 120 -106 -401 -689 -873 -903 -797 -592 -356 -167 -50 14 43 47 44 44 38 26 18 16 12 6 3 2 3 2 0 1 3 4 5 9 12 15	-23 -14 -4 5 14	-7780 -7540 -8484 -9252 -9624	-5388 -5524 -5504 -5464 -5324	7788 7676 7072 7200 7140
7235	113	556	0	23	315	2	94	0	0	1	21 30 42 54 65 78 90 103 114 125 134 137 133 126 116 102 86 66 44 22 0 -17 -35 -57 -79 -99 -115 -126 -133 -139 -143 -143 -140 -136 -132 -127 -118 -111 -108 -106 -103 -101 -98 -96 -95 -91 -87 -85 -84 -86	21 27 31 33 30	-9396 -10816 -11448 -10956 -10320	-5692 -5988 -5448 -4928 -4468	7152 6860 7468 8364 8344
7236	109	556	0	23	315	2	94	0	0	0	-89 -90 -89 -88 -87 -86 -88 -91 -93 -96 -99 -102 -106 -108 -108 -109 -107 -104 -101 -99 -98 -100 -101 -99 -94 -87 -79 -75 -77 -84 -91 -99 -105 -109 -112 -114 -115 -118 -121 -124 -125 -125 -124 -122 -120 -118 -118 -120 -120 -118	24 17 9 2 -4	-9312 -8976 -8604 -8196 -8128	-4744 -5188 -5324 -5224 -5048	7780 7808 7520 7576 7652
7237	109	556	0	23	315	2	94	0	0	0	-110 -89 -54 4 93 197 258 219 75 -147 -414 -674 -859 -921 -856 -675 -435 -220 -73 16 68 86 90 92 86 72 58 49 45 40 33 28 25 21 17 15 16 17 18 23 29 34 39 41 44 54 67 79 93 107	-8 -10 -11 -11 -10	-8428 -8616 -9008 -9464 -9920	-4848 -4960 -4900 -5296 -5560	7300 7304 7348 7064 6884
7238	109	568	0	23	315	2	94	0	0	1	122 137 149 156 158 156 151 141 126 107 83 56 30 5 -19 -43 -69 -91 -106 -119 -133 -146 -155 -161 -162 -162 -165 -166 -164 -159 -153 -147 -139 -134 -131 -130 -128 -124 -120 -114 -109 -104 -98 -95 -94 -94 -93 -91 -90 -91	-9 -8 -7 -8 -9	-9956 -10824 -10784 -9756 -9480	-5688 -5876 -5740 -5892 -6332	6968 7164 7696 8716 8264
7239	109	568	0	23	315	2	94	0	0	0	-89 -86 -82 -78 -72 -67 -63 -61 -58 -56 -53 -52 -52 -56 -59 -63 -68 -75 -81 -85 -86 -83 -80 -73 -64 -58 -53 -50 -50 -51 -50 -48 -48 -48 -46 -38 -20 16 71 150 245 317 306 192 -4 -250 -508 -717 -827 -817	-11 -13 -12 -8 -2	-9164 -8996 -8860 -7788 -7500	-6268 -5892 -5512 -5252 -5612	8048 7884 7680 7760 7592
7240	109	568	0	23	315	2	94	0	0	0	-688 -472 -244 -72 38 104 133 139 138 131 118 105 97 91 83 75 71 72 79 87 92 95 93 90 90 93 96 99 105 115 126 137 150 165 184 206 226 240 249 251 246 237 222 203 180 154 126 95 62 27	6 14 21 26 30	-7732 -8216 -9576 -9692 -9776	-5672 -5716 -5636 -5800 -5924	7708 7300 7200 7124 7268
7241	109	544	0	23	315	2	94	0	0	1	-4 -33 -60 -83 -100 -114 -123 -128 -132 -135 -137 -135 -131 -122 -111 -102 -96 -93 -91 -87 -82 -77 -69 -61 -54 -47 -42 -40 -40 -42 -42 -42 -42 -44 -47 -52 -57 -58 -59 -59 -59 -58 -57 -56 -56 -54 -50 -46 -41 -38	32 32 30 26 21	-10276 -11048 -10288 -9876 -9716	-6108 -5332 -4752 -4536 -4856	6720 7856 8336 7904 7816
7242	109	544	0	23	315	2	94	0	0	0	-39 -42 -47 -55 -63 -71 -79 -83 -87 -91 -92 -91 -90 -88 -87 -88 -87 -83 -77 -72 -66 -60 -54 -40 -14 28 98 197 288 304 213 23 -243 -542 -801 -946 -944 -795 -539 -275 -82 36 103 134 145 147 144 134 123 117	15 9 2 -5 -12	-9348 -9432 -8176 -7996 -8240	-5040 -4624 -5412 -5244 -4680	7732 8004 7836 7692 7548
7243	109	552	0	23	315	2	94	0	0	1	115 114 114 116 120 120 120 123 127 134 143 156 170 185 199 210 214 216 221 229 241 254 263 269 274 274 269 258 241 221 201 173 142 109 73 36 0 -33 -65 -96 -123 -146 -167 -184 -196 -206 -211 -213 -211 -205	-19 -23 -22 -17 -9	-8924 -9244 -10416 -9608 -11420	-5000 -6772 -4720 -6284 -6304	7252 6248 7264 7452 7492
7244	109	552	0	23	315	2	94	0	0	0	-195 -184 -172 -160 -151 -141 -132 -126 -122 -118 -115 -111 -106 -100 -94 -89 -87 -87 -87 -85 -84 -79 -75 -74 -74 -74 -74 -71 -67 -65 -68 -70 -69 -65 -60 -57 -59 -62 -66 -70 -73 -78 -83 -85 -83 -82 -82 -83 -86 -90	-1 3 2 -4 -12	-11024 -10176 -9488 -9340 -8824	-5808 -6152 -6252 -6264 -5964	8196 8512 8560 8456 7976
7245	109	552	0	23	315	2	94	0	0	0	-93 -95 -94 -91 -86 -83 -81 -80 -79 -75 -59 -28 24 103 211 310 336 248 54 -218 -522 -784 -931 -935 -797 -553 -294 -97 28 102 134 140 137 129 117 109 107 107 104 101 100 101 104 106 109 113 117 120 124 130	-19 -21 -17 -8 4	-8368 -8604 -8252 -7928 -8216	-5780 -5556 -5492 -5312 -5516	7916 7836 7824 7648 7416
7246	109	548	0	23	315	2	94	0	0	1	136 143 149 155 163 175 188 204 219 234 245 252 253 251 246 239 228 212 190 166 139 111 84 59 33 4 -24 -51 -73 -88 -100 -109 -117 -120 -120 -119 -115 -111 -108 -101 -93 -85 -76 -65 -56 -49 -41 -35 -30 -27	17 27 34 37 36	-8568 -9248 -9512 -10168 -10760	-5644 -5744 -5796 -5848 -6056	7356 7292 7040 6904 6972
7247	109	548	0	23	315	2	94	0	0	0	-23 -21 -19 -14 -9 -6 -4 -3 -2 -3 -2 0 0 -1 -1 -1 1 4 5 1 -3 -5 -6 -8 -12 -19 -28 -36 -39 -39 -39 -37 -36 -36 -36 -35 -32 -27 -21 -14 -8 -4 -3 -2 1 7 23 53 97 160	31 22 10 -4 -16	-10992 -10720 -9240 -9060 -8864	-5792 -5484 -4572 -4664 -4708	7524 7920 8084 7764 7648
7248	109	548	0	23	315	2	94	0	0	0	243 325 356 292 139 -79 -330 -566 -727 -774 -704 -536 -321 -132 -1 81 127 141 139 136 130 120 111 111 115 116 117 117 114 111 112 115 120 125 130 136 144 157 171 186 201 216 231 248 266 284 301 312 315 312	-25 -30 -30 -28 -24	-8868 -8544 -8488 -8304 -8440	-5100 -5104 -5220 -5072 -4832	7556 7712 7604 7416 7204
7249	109	548	0	23	315	2	94	0	0	1	307 302 294 282 266 242 214 186 158 129 100 73 46 22 2 -15 -29 -37 -37 -31 -29 -31 -35 -39 -41 -39 -35 -31 -28 -22 -14 -5 4 11 18 22 27 34 41 47 53 57 58 57 56 54 50 48 45 44	-20 -16 -14 -12 -10	-9796 -9732 -9856 -9904 -10776	-4868 -5268 -5528 -5232 -5824	7356 7080 7060 6960 7004
7250	109	548	0	23	315	2	94	0	0	0	44 45 46 43 37 29 25 26 31 34 33 26 18 15 15 9 -2 -13 -24 -34 -39 -41 -43 -43 -42 -42 -42 -41 -40 -41 -44 -48 -49 -42 -22 16 77 169 273 326 275 117 -129 -420 -686 -860 -904 -806 -589 -333	-9 -9 -12 -17 -22	-9800 -9436 -9764 -9592 -9168	-5668 -5908 -6252 -6020 -5416	8112 8636 8300 7892 7708
7251	109	548	0	23	315	2	94	0	0	1	-122 18 101 141 155 155 145 132 117 107 101 95 91 89 90 93 97 104 111 122 137 150 161 169 174 181 190 201 212 223 236 249 259 265 270 273 274 269 258 242 224 203 180 154 125 94 63 32 1 -28	-26 -29 -31 -30 -27	-8716 -8252 -7984 -8156 -9012	-5200 -5288 -4960 -5272 -5368	7812 7532 7568 7380 7244
7252	109	548	0	23	315	2	94	0	0	0	-54 -76 -95 -109 -118 -124 -126 -125 -121 -114 -106 -98 -91 -85 -78 -66 -55 -46 -39 -37 -36 -33 -29 -28 -27 -26 -26 -25 -23 -22 -23 -24 -25 -26 -26 -27 -26 -22 -17 -13 -11 -10 -10 -11 -12 -10 -5 3 12 16	-24 -19 -13 -9 -7	-9380 -9452 -9492 -11068 -11308	-5772 -5364 -5472 -5908 -4972	7136 7300 7476 6948 7852
7253	109	548	0	23	315	2	94	0	0	0	15 11 5 -1 -7 -14 -19 -23 -26 -28 -29 -30 -30 -30 -31 -31 -30 -29 -28 -25 -22 -20 -15 -5 16 52 108 188 270 301 247 102 -125 -402 -664 -826 -849 -728 -496 -246 -61 48 107 134 140 139 133 120 106 97	-8 -12 -19 -24 -27	-10664 -10108 -9324 -9076 -8892	-4544 -4764 -4276 -4568 -4864	8392 8032 8004 7488 7868
7254	109	560	0	23	315	2	94	0	0	1	84 75 69 67 67 67 69 73 77 81 88 97 107 117 129 142 158 175 189 201 212 223 233 240 244 244 241 235 226 214 198 178 155 130 104 76 48 19 -9 -34 -55 -74 -90 -104 -115 -123 -127 -127 -124 -118	-30 -33 -36 -39 -40	-8044 -8408 -8624 -9020 -9424	-5004 -4896 -5184 -5356 -4952	7528 7216 7188 7196 7204
7255	109	560	0	23	315	2	94	0	0	0	-111 -103 -96 -87 -80 -73 -68 -64 -59 -54 -49 -44 -40 -37 -34 -32 -32 -31 -30 -29 -28 -26 -20 -15 -12 -12 -14 -14 -13 -15 -17 -16 -11 -4 0 0 -6 -15 -25 -34 -43 -52 -53 -40 -8 31 67 93 107 117	-39 -34 -29 -25 -24	-9960 -10468 -11328 -10520 -9328	-5344 -5716 -6124 -6240 -5836	6888 7144 7228 8108 8448
7256	108	560	0	23	315	2	94	0	0	0	129 149 173 195 211 223 230 235 242 253 274 310 369 452 536 571 509 353 125 -139 -379 -537 -581 -508 -340 -133 43 162 238 278 290 288 280 268 254 245 239 234 227 223 221 220 218 213 209 206 206 208 211 216	-26 -29 -29 -26 -19	-9220 -9236 -8992 -8576 -8168	-5992 -6032 -5688 -5060 -4936	8364 7988 7756 7532 7552
7257	108	544	0	23	315	2	94	0	0	1	223 231 241 251 262 273 283 293 304 314 322 326 325 318 308 296 282 266 246 222 196 166 136 113 93 71 46 21 2 -9 -16 -22 -32 -41 -46 -49 -52 -57 -63 -66 -65 -61 -54 -46 -42 -39 -37 -37 -36 -36	-8 6 21 35 47	-8052 -8160 -8372 -9156 -9168	-5076 -5244 -5468 -5732 -5984	7480 7516 7280 7164 7128
7258	108	544	0	23	315	2	94	0	0	0	-35 -35 -35 -35 -37 -38 -41 -45 -50 -55 -60 -63 -63 -61 -62 -64 -68 -72 -67 -57 -53 -55 -63 -74 -82 -87 -89 -92 -94 -93 -91 -90 -90 -89 -85 -78 -71 -64 -60 -57 -55 -52 -48 -43 -35 -19 10 57 128 225	56 62 65 63 59	-9696 -10880 -11108 -10348 -9216	-6132 -5944 -5096 -5000 -4812	7032 6888 7820 8144 7972
7259	108	544	0	23	315	2	94	0	0	0	318 341 258 73 -190 -476 -714 -843 -837 -697 -466 -228 -51 62 129 159 167 163 150 138 132 128 122 115 111 110 111 110 105 101 99 99 100 102 104 107 113 122 133 146 162 180 198 216 233 246 254 255 250 242	52 45 38 33 30	-8684 -8348 -8080 -8128 -8244	-5356 -5436 -5144 -5036 -5036	7648 7712 7692 7536 7468
7260	108	548	0	23	315	2	94	0	0	1	232 217 198 176 152 125 98 69 39 11 -15 -38 -60 -78 -93 -107 -117 -124 -126 -125 -119 -113 -109 -105 -100 -92 -83 -73 -66 -61 -58 -53 -48 -44 -39 -32 -27 -25 -24 -24 -24 -23 -23 -23 -25 -27 -26 -25 -25 -24	29 29 30 31 31	-8984 -9588 -9860 -9880 -10160	-5060 -5092 -5348 -5488 -5704	7240 7024 7024 7076 7068
7261	108	548	0	23	315	2	94	0	0	0	-23 -22 -22 -24 -24 -22 -18 -15 -15 -20 -27 -36 -47 -53 -52 -51 -52 -55 -59 -62 -62 -62 -62 -60 -58 -56 -56 -58 -59 -55 -49 -40 -26 -3 33 87 171 270 323 280 132 -107 -395 -659 -817 -830 -697 -463 -219 -44	29 26 20 11 -1	-10444 -10448 -9920 -9644 -9528	-5800 -5692 -5824 -6256 -5936	7640 8360 8692 8752 8192
7262	108	552	0	23	315	2	94	0	0	1	55 107 130 136 133 126 117 110 104 99 94 90 89 88 87 88 91 93 95 99 105 114 123 130 139 148 159 173 189 206 226 245 262 272 278 280 277 270 259 246 229 209 184 155 124 94 65 38 13 -10	-15 -27 -34 -36 -34	-9284 -8868 -8584 -7640 -7680	-5484 -5024 -4820 -5488 -5732	8100 7848 7656 7664 7748
7263	108	552	0	23	315	2	94	0	0	0	-30 -47 -61 -73 -81 -88 -91 -93 -93 -91 -86 -83 -79 -75 -71 -66 -57 -50 -47 -46 -47 -47 -46 -45 -44 -42 -40 -37 -36 -36 -35 -33 -32 -33 -33 -33 -32 -29 -26 -22 -18 -13 -9 -10 -15 -19 -20 -16 -9 -4	-29 -21 -14 -8 -3	-8404 -9116 -9768 -10108 -10928	-5692 -5436 -5608 -5944 -6204	7532 7404 7344 7404 7020
7264	108	552	0	23	315	2	94	0	0	0	-6 -12 -22 -32 -37 -31 -10 17 43 61 70 72 76 80 82 84 87 87 87 85 82 82 91 105 121 145 185 256 354 429 419 298 78 -204 -488 -691 -753 -668 -464 -215 -13 107 166 190 191 183 172 160 149 141	1 3 1 -2 -7	-10888 -10092 -9816 -9488 -9404	-5868 -4680 -4360 -4612 -4756	7320 8780 8232 8120 8228
7265	108	564	0	23	315	2	94	0	0	1	135 130 124 120 118 116 112 108 105 105 104 102 101 103 108 116 126 140 155 167 177 185 193 201 208 213 216 216 211 202 187 167 144 118 90 62 33 5 -23 -48 -71 -91 -107 -120 -131 -141 -148 -151 -150 -146	-11 -15 -18 -20 -20	-8972 -8408 -8136 -8120 -8508	-5284 -5096 -4940 -4880 -4892	7792 7916 7744 7608 7476
7266	109	564	0	23	315	2	94	0	0	0	-142 -139 -136 -133 -130 -126 -118 -110 -101 -94 -88 -84 -81 -76 -71 -67 -63 -61 -59 -58 -57 -56 -57 -56 -54 -52 -51 -52 -54 -55 -52 -48 -47 -49 -51 -50 -46 -41 -39 -41 -49 -57 -63 -66 -69 -69 -67 -66 -65 -63	-17 -12 -6 0 5	-9204 -9960 -9920 -10224 -10664	-5168 -5380 -5584 -5632 -5804	7452 7432 7344 7112 8084
7267	109	564	0	23	315	2	94	0	0	0	-61 -60 -58 -56 -54 -53 -50 -46 -42 -37 -33 -27 -20 -7 20 65 133 223 315 350 274 98 -136 -387 -602 -730 -748 -663 -489 -275 -95 21 91 128 138 135 130 120 106 95 89 84 79 74 71 70 69 68 67 66	8 8 5 0 -4	-10012 -9664 -9608 -9528 -8976	-5744 -5968 -6272 -6108 -5064	8736 9052 9020 8164 7916
7268	109	560	0	23	315	2	94	0	0	1	63 64 67 73 80 90 99 110 123 138 154 166 180 198 212 220 220 212 200 188 171 150 125 99 73 46 16 -11 -34 -55 -73 -88 -97 -103 -106 -107 -108 -110 -111 -112 -112 -110 -107 -104 -102 -99 -92 -81 -69 -60	-7 -6 -3 3 11	-8576 -7864 -7708 -8124 -9064	-4860 -5116 -5324 -5596 -5512	7912 7864 7788 7584 7456
7269	109	560	0	23	315	2	94	0	0	0	-53 -49 -46 -44 -41 -38 -36 -36 -36 -37 -37 -37 -37 -37 -39 -40 -40 -41 -39 -33 -25 -21 -21 -25 -32 -36 -34 -30 -28 -29 -35 -44 -53 -61 -67 -70 -69 -67 -65 -63 -62 -62 -62 -61 -59 -56 -51 -46 -41 -39	18 24 29 32 33	-9448 -9564 -10472 -11152 -11016	-5560 -5740 -6072 -5952 -5192	7360 7452 7292 7232 8008
7270	109	560	0	23	315	2	94	0	0	0	-36 -32 -26 -12 17 62 131 230 329 363 287 101 -165 -454 -690 -816 -809 -671 -441 -205 -28 78 129 147 147 140 128 116 107 100 94 90 86 84 82 80 78 77 76 77 79 83 89 97 105 113 124 138 152 168	30 23 14 2 -9	-10272 -9964 -9240 -9144 -8692	-4980 -4900 -4936 -5040 -5336	8616 8808 8124 7748 7500
7271	109	564	0	23	315	2	94	0	0	1	183 196 207 217 223 224 219 212 200 185 167 145 122 99 73 44 14 -16 -43 -66 -79 -88 -99 -109 -118 -126 -132 -135 -137 -136 -133 -129 -123 -118 -112 -105 -101 -97 -92 -85 -79 -75 -72 -68 -61 -55 -50 -48 -45 -43	-19 -26 -29 -29 -25	-8360 -8140 -8348 -8592 -9020	-5108 -4808 -4716 -4952 -4964	7668 7508 7560 7188 7368
7272	109	564	0	23	315	2	94	0	0	0	-42 -44 -47 -50 -52 -51 -49 -49 -49 -48 -45 -42 -39 -35 -30 -23 -15 -11 -12 -14 -14 -13 -13 -16 -23 -31 -36 -40 -45 -47 -47 -45 -43 -44 -46 -47 -45 -42 -38 -34 -30 -27 -23 -19 -17 -14 -7 13 48 105	-20 -16 -12 -9 -9	-9776 -10040 -10248 -10404 -10484	-5424 -5480 -5604 -5760 -5724	7248 7164 6852 7224 8092
7273	109	564	0	23	315	2	94	0	0	0	191 291 349 311 167 -60 -330 -586 -757 -798 -702 -490 -239 -43 72 130 155 160 155 145 132 123 124 127 123 116 109 104 102 103 104 104 106 110 113 115 119 124 129 136 145 156 168 180 192 205 216 224 230 233	-10 -15 -21 -27 -30	-9676 -9708 -9712 -9260 -8412	-6064 -6340 -6024 -5536 -5236	8836 8476 8012 8012 7776
7274	109	572	0	23	315	2	94	0	0	1	229 222 211 196 178 157 134 107 80 52 23 -6 -33 -57 -76 -93 -105 -109 -106 -105 -106 -109 -110 -107 -101 -95 -90 -85 -76 -67 -61 -56 -51 -46 -41 -37 -34 -34 -37 -40 -42 -42 -42 -42 -43 -45 -48 -49 -49 -48	-28 -22 -13 -2 10	-7832 -7568 -7624 -8044 -9540	-5452 -5648 -5792 -5716 -5572	7748 7692 7596 7612 7380
7275	109	572	0	23	315	2	94	0	0	0	-48 -48 -46 -45 -44 -44 -47 -50 -50 -48 -46 -46 -44 -39 -35 -33 -32 -32 -28 -20 -12 -8 -7 -4 1 2 -1 -6 -11 -9 -8 -9 -12 -16 -20 -22 -22 -20 -16 -11 -7 -6 -7 -5 3 19 45 88 162 260	21 31 40 45 47	-9764 -9712 -10608 -11264 -10408	-5312 -5596 -5852 -5072 -4996	7380 7404 7292 8012 8328
7276	109	572	0	23	315	2	94	0	0	0	323 207 -15 -306 -597 -800 -860 -765 -542 -280 -79 34 85 99 98 94 84 73 67 65 63 60 55 51 50 47 45 44 45 46 47 49 53 58 65 73 80 88 99 112 129 147 163 175 185 192 195 194 189 180	43 37 30 23 19	-9728 -9516 -9228 -8752 -8384	-4744 -4880 -4804 -5144 -5376	8328 8180 7884 7688 7876
7277	109	592	0	23	315	2	94	0	0	1	168 154 135 111 83 52 22 -9 -37 -63 -88 -110 -130 -147 -160 -167 -170 -171 -170 -165 -158 -151 -142 -133 -119 -106 -101 -99 -97 -94 -90 -86 -82 -78 -72 -65 -62 -62 -60 -60 -60 -61 -63 -65 -66 -68 -70 -73 -77 -80	16 13 10 8 6	-8008 -8084 -8372 -9160 -9508	-5276 -5116 -5020 -5124 -5100	7744 7560 7360 7284 7120
7278	109	592	0	23	315	2	94	0	0	0	-81 -80 -78 -74 -71 -70 -68 -66 -64 -65 -66 -65 -60 -54 -50 -52 -57 -63 -68 -69 -67 -70 -73 -76 -79 -81 -80 -79 -76 -72 -69 -69 -70 -70 -70 -69 -68 -66 -58 -41 -10 34 101 191 275 291 197 9 -234 -486	5 4 4 3 1	-9832 -10336 -10744 -10688 -10184	-5288 -5564 -5684 -5716 -5388	7232 7056 7416 7636 8664
7279	109	592	0	23	315	2	94	0	0	0	-698 -815 -819 -713 -515 -289 -109 6 73 105 108 100 90 82 79 79 76 71 63 58 58 59 56 54 53 54 55 59 63 69 76 83 93 107 123 138 152 167 183 198 210 217 218 215 207 196 180 160 137 113	-3 -9 -15 -20 -21	-9680 -9612 -9392 -9004 -8628	-6248 -6112 -5784 -5360 -4928	8504 8140 7988 7700 7676
7280	109	584	0	23	315	2	94	0	0	1	87 60 33 6 -22 -49 -72 -93 -107 -116 -122 -126 -128 -127 -125 -121 -118 -114 -109 -104 -95 -83 -73 -66 -62 -61 -59 -55 -49 -43 -37 -31 -27 -24 -19 -15 -13 -13 -14 -16 -17 -18 -21 -25 -28 -30 -30 -29 -29 -29	-18 -12 -1 10 22	-7884 -7792 -8236 -8756 -9820	-5292 -5504 -5516 -5452 -5344	7736 7680 7696 7568 7296
7281	109	584	0	23	315	2	94	0	0	0	-27 -26 -26 -28 -29 -25 -16 -7 -4 -8 -15 -22 -28 -32 -35 -33 -28 -24 -23 -23 -24 -25 -25 -25 -25 -24 -22 -20 -18 -17 -12 -2 19 56 112 195 293 368 364 260 69 -184 -455 -674 -782 -759 -614 -394 -178 -19	31 37 39 39 35	-9968 -10084 -10848 -9804 -9456	-5684 -5900 -5860 -5072 -4652	7272 7040 6896 8380 8756
7282	109	568	0	23	315	2	94	0	0	1	81 137 158 159 152 142 129 116 108 103 98 94 90 88 86 83 81 80 80 80 83 87 95 105 114 122 131 143 157 173 189 203 216 229 239 241 236 227 214 196 173 147 120 92 64 36 6 -22 -48 -70	28 19 9 -2 -11	-9968 -9844 -9596 -8372 -7908	-4708 -4928 -5384 -5828 -5508	8236 7948 8004 7872 7820
7283	109	568	0	23	315	2	94	0	0	0	-105 -116 -123 -127 -128 -128 -126 -122 -115 -109 -104 -100 -95 -87 -79 -70 -58 -47 -41 -38 -38 -38 -36 -33 -29 -26 -24 -21 -17 -15 -14 -14 -13 -11 -10 -10 -11 -13 -17 -19 -18 -16 -12 -5 2 5 6 7 10 16	-19 -24 -27 -27 -25	-7960 -7972 -8716 -9436 -10080	-5256 -5004 -5180 -5488 -5584	7516 7376 7200 7112 6980
7284	109	568	0	23	315	2	94	0	0	0	21 25 25 21 14 6 -1 -5 -5 -2 1 1 1 2 2 2 2 2 2 1 -1 -3 0 4 7 13 28 56 105 182 284 365 359 242 31 -239 -511 -719 -809 -764 -591 -345 -119 31 113 152 165 163 156 147	-22 -20 -18 -19 -23	-10080 -10788 -10616 -9976 -9624	-5604 -5836 -5720 -5832 -6172	7132 7376 7920 8436 8724
7285	109	580	0	23	315	2	94	0	0	1	137 129 124 120 116 113 112 111 109 107 107 108 109 110 111 115 121 130 142 155 167 177 189 201 211 220 229 236 240 247 248 237 221 200 174 148 122 93 63 33 6 -20 -42 -62 -81 -97 -110 -117 -122 -127	-29 -36 -40 -40 -35	-9400 -9440 -9036 -8780 -8020	-6276 -5660 -5248 -5052 -5220	8512 8096 7936 7640 7748
7286	106	580	0	23	315	2	94	0	0	0	-131 -133 -131 -126 -120 -113 -105 -97 -87 -80 -74 -68 -63 -58 -51 -45 -39 -34 -29 -25 -23 -21 -22 -23 -18 -13 -12 -14 -16 -18 -17 -16 -17 -22 -25 -27 -30 -33 -35 -36 -35 -33 -29 -25 -20 -15 -9 -2 1 -1	-26 -14 -2 10 19	-7584 -8024 -8868 -9396 -10128	-5584 -5588 -5520 -5600 -6000	7600 7664 7568 7364 7296
7287	106	580	0	23	315	2	94	0	0	0	-5 -6 -3 3 7 6 -1 -8 -15 -20 -21 -18 -13 -6 -3 -3 -3 -2 3 13 24 29 29 27 26 29 31 33 42 66 109 179 277 364 377 286 94 -172 -459 -692 -802 -763 -582 -321 -87 60 133 160 163 158	26 31 33 31 27	-10416 -11312 -11008 -10312 -9844	-6356 -6272 -5040 -4660 -4920	7168 7316 7920 8448 7876
7288	106	608	0	23	315	2	94	0	0	1	150 139 127 117 107 98 89 82 79 77 75 72 70 71 77 86 93 98 101 105 111 119 129 142 158 174 190 204 214 223 229 230 227 219 209 194 172 144 116 89 62 35 6 -23 -52 -75 -91 -104 -113 -120	21 16 11 7 4	-9284 -9012 -8600 -8072 -8012	-4844 -5184 -5220 -5036 -4888	7880 7820 7716 7596 7468
7289	106	608	0	23	315	2	94	0	0	0	-126 -128 -129 -128 -126 -122 -117 -114 -110 -106 -99 -90 -80 -70 -61 -53 -46 -42 -41 -40 -37 -30 -27 -31 -37 -42 -46 -49 -50 -53 -55 -56 -56 -56 -57 -55 -51 -49 -49 -48 -45 -44 -42 -41 -39 -37 -35 -32 -29 -26	1 -1 -3 -4 -5	-8068 -8476 -9620 -10180 -10628	-4912 -4940 -5260 -5408 -5456	7428 7264 7176 7172 6904
7290	106	608	0	23	315	2	94	0	0	0	-27 -29 -28 -23 -18 -14 -16 -22 -30 -37 -43 -48 -49 -50 -49 -42 -37 -39 -43 -47 -50 -49 -46 -46 -46 -46 -45 -46 -45 -36 -17 13 62 137 231 296 269 135 -82 -343 -590 -762 -814 -747 -578 -355 -154 -19 60 104	-7 -8 -10 -13 -16	-10368 -10708 -9996 -9492 -9588	-5448 -5732 -5724 -6032 -6392	6656 7192 8208 8700 8400
7291	106	612	0	23	315	2	94	0	0	1	120 120 117 112 101 91 88 87 84 81 79 78 75 70 66 64 63 62 63 64 67 76 86 96 107 115 125 137 153 167 180 191 201 208 207 198 186 169 149 128 104 76 48 24 3 -17 -38 -58 -79 -98	-20 -23 -23 -19 -11	-9216 -8812 -8476 -7976 -7792	-6568 -5372 -4964 -5000 -5332	8216 7824 7652 7644 7680
7292	106	612	0	23	315	2	94	0	0	0	-110 -116 -123 -128 -128 -120 -111 -110 -112 -114 -114 -109 -103 -98 -94 -88 -78 -68 -62 -57 -52 -50 -48 -47 -45 -44 -43 -41 -40 -41 -43 -45 -46 -45 -44 -42 -44 -48 -52 -54 -54 -53 -53 -53 -51 -48 -45 -40 -33 -31	-1 11 21 30 36	-8120 -8752 -9580 -9740 -9864	-5632 -5472 -5636 -5764 -5840	7600 7512 7184 7280 7400
7293	106	612	0	23	315	2	94	0	0	0	-32 -33 -33 -29 -22 -15 -15 -20 -26 -33 -37 -38 -34 -27 -23 -20 -19 -19 -17 -15 -14 -14 -11 -3 2 0 -2 -4 -3 7 32 71 133 228 323 352 273 86 -179 -466 -705 -830 -818 -675 -443 -206 -37 59 105 122	38 37 33 25 15	-10944 -10820 -10136 -9956 -9728	-6108 -5408 -4840 -4676 -5060	6904 7488 8300 8576 8064
7294	106	600	0	23	315	2	94	0	0	1	123 117 108 99 92 89 86 84 81 79 78 75 72 70 71 71 70 73 82 90 94 97 100 104 113 125 139 151 162 172 179 185 190 191 183 169 153 135 113 89 63 37 13 -12 -38 -64 -87 -104 -117 -127	4 -9 -20 -30 -37	-9540 -8916 -8196 -7792 -7952	-5416 -5748 -5728 -5100 -4884	7992 7832 7744 7564 7456
7295	106	600	0	23	315	2	94	0	0	0	-135 -141 -144 -145 -143 -141 -140 -138 -134 -130 -125 -120 -112 -105 -97 -89 -84 -78 -73 -71 -70 -66 -61 -57 -51 -47 -48 -47 -45 -44 -43 -41 -39 -40 -40 -38 -35 -33 -32 -33 -35 -38 -39 -35 -32 -28 -24 -22 -24 -27	-41 -42 -41 -38 -34	-8464 -8872 -9600 -9708 -9904	-4980 -5132 -5388 -5756 -5604	7360 7220 7152 6968 6972
7296	104	600	0	23	315	2	94	0	0	0	-28 -25 -18 -8 -1 1 1 -1 -6 -12 -15 -15 -14 -11 -10 -11 -11 -11 -9 -5 0 2 2 0 -5 -10 -14 -17 -17 -8 14 49 104 184 271 309 257 109 -122 -397 -641 -775 -767 -628 -400 -171 -14 70 110 122	-31 -29 -29 -30 -33	-10760 -10468 -9588 -9628 -9576	-5788 -5752 -5776 -6416 -6352	6992 7240 8632 8596 8328
7297	104	600	0	23	315	2	94	0	0	1	118 111 103 94 85 81 78 74 67 61 55 50 46 46 50 55 56 56 55 56 62 70 79 91 105 122 140 155 168 181 192 200 204 205 202 193 179 159 134 106 76 44 14 -13 -38 -61 -83 -103 -120 -136	-36 -37 -33 -26 -15	-9404 -8844 -8360 -8012 -7660	-6004 -5168 -5088 -5388 -5684	8092 7884 7836 7768 7780
7298	104	600	0	23	315	2	94	0	0	0	-152 -155 -156 -155 -155 -152 -148 -144 -140 -134 -128 -120 -111 -101 -92 -84 -79 -74 -69 -61 -50 -43 -41 -41 -42 -42 -40 -37 -38 -38 -37 -36 -35 -33 -31 -28 -26 -25 -25 -25 -23 -21 -18 -16 -13 -9 -4 -1 0 2	-2 11 23 32 40	-7840 -9112 -9580 -9760 -9896	-5660 -5764 -5844 -6068 -6240	7776 7560 7492 7448 7516
7299	104	600	0	23	315	2	94	0	0	0	2 1 3 4 5 9 15 18 19 18 15 15 15 14 16 23 26 22 15 8 4 4 4 1 -2 -1 0 -1 -3 -4 1 17 48 100 182 283 352 327 195 -20 -276 -524 -707 -779 -731 -577 -360 -153 -9 77	44 45 42 35 26	-11172 -10644 -10104 -10020 -9160	-6092 -4932 -4540 -4752 -5376	7532 8628 8912 8240 8200
7300	104	608	0	23	315	2	94	0	0	1	125 145 147 145 138 125 110 101 98 95 93 91 90 87 82 78 77 77 77 80 84 91 100 108 116 125 133 144 157 171 182 195 206 213 218 218 214 205 191 173 148 106 58 21 -5 -19 -28 -43 -63 -79	17 8 0 -7 -12	-8664 -8048 -7960 -8060 -8716	-5652 -5640 -5444 -5396 -5284	8016 8028 7880 7632 7464
7301	104	608	0	23	315	2	94	0	0	0	-90 -102 -115 -125 -130 -132 -134 -135 -133 -128 -123 -119 -114 -108 -102 -95 -83 -67 -56 -49 -47 -48 -47 -42 -37 -33 -30 -27 -24 -23 -24 -24 -23 -23 -22 -22 -21 -23 -25 -24 -24 -22 -21 -19 -18 -15 -10 -5 -4 -4	-14 -13 -11 -8 -5	-9212 -9328 -9384 -10092 -10872	-5556 -5736 -5904 -5548 -5880	7264 7080 7068 7164 7472
7302	104	608	0	23	315	2	94	0	0	0	-3 1 6 12 15 14 10 5 1 -3 -6 -5 -1 1 1 0 -3 -8 -11 -13 -14 -17 -18 -16 -15 -15 -15 -13 -4 20 64 129 221 314 350 279 104 -146 -424 -667 -814 -833 -723 -512 -277 -91 26 92 123 130	-3 -5 -9 -16 -22	-10856 -10644 -9844 -9376 -9052	-5964 -6080 -6108 -5760 -5572	8528 9044 8756 8472 8296
7303	104	592	0	23	315	2	94	0	0	1	125 115 103 91 82 76 71 68 66 65 62 62 65 70 75 81 89 97 107 117 126 135 143 153 165 181 200 220 237 251 259 262 260 254 244 229 209 184 155 124 91 58 27 -2 -30 -52 -71 -88 -100 -109	-25 -24 -17 -7 6	-8684 -8388 -7956 -8016 -8396	-5336 -5152 -5372 -5592 -5716	7828 8004 7572 7636 7648
7304	104	592	0	23	315	2	94	0	0	0	-116 -121 -124 -127 -128 -129 -128 -126 -122 -117 -109 -100 -92 -84 -75 -67 -57 -50 -43 -38 -34 -30 -27 -25 -21 -16 -14 -16 -20 -24 -27 -30 -34 -39 -43 -45 -46 -46 -44 -41 -40 -40 -41 -40 -37 -33 -30 -28 -25 -19	18 29 38 44 48	-10084 -9656 -9340 -10152 -10200	-5776 -6004 -6168 -5984 -4872	7044 7096 7264 7000 8424
7305	104	592	0	23	315	2	94	0	0	0	-3 5 11 12 9 7 8 14 22 27 24 17 8 -1 -10 -19 -23 -22 -20 -20 -23 -29 -36 -42 -47 -53 -59 -62 -63 -61 -56 -51 -44 -28 1 49 125 229 320 330 229 26 -245 -528 -751 -858 -830 -673 -433 -197	50 48 43 36 27	-9960 -10324 -9820 -9664 -8280	-4452 -4488 -4680 -5244 -5492	8668 8208 8100 7816 7720
7306	101	624	0	23	315	2	94	0	0	1	-30 66 116 134 134 130 122 111 102 96 92 87 82 83 91 95 94 91 87 84 84 86 87 88 92 100 109 120 133 148 162 177 191 202 210 216 217 214 207 195 177 157 134 107 78 47 18 -9 -33 -55	18 7 -2 -8 -13	-7788 -7852 -8052 -8928 -9584	-5372 -5100 -4968 -5088 -5376	7732 7584 7396 7304 7348
7307	101	624	0	23	315	2	94	0	0	0	-77 -97 -114 -128 -140 -149 -157 -161 -161 -156 -150 -144 -141 -137 -132 -125 -116 -108 -101 -93 -84 -79 -77 -78 -79 -79 -77 -76 -76 -75 -71 -66 -61 -59 -58 -58 -56 -51 -47 -44 -43 -43 -41 -40 -39 -37 -36 -37 -37 -37	-14 -14 -13 -12 -13	-9776 -9888 -10792 -10628 -9916	-5720 -5728 -5796 -5744 -5928	7240 7104 7292 8012 8672
7308	101	624	0	23	315	2	94	0	0	0	-37 -36 -37 -40 -41 -40 -39 -39 -41 -45 -50 -54 -56 -54 -44 -27 -13 -12 -21 -33 -45 -54 -57 -58 -59 -58 -58 -59 -62 -64 -66 -67 -68 -69 -69 -70 -72 -74 -75 -72 -60 -35 6 73 168 258 279 195 8 -258	-16 -22 -29 -34 -36	-9700 -9796 -9412 -8832 -8432	-6448 -6756 -5720 -5320 -5204	8732 8584 7916 7936 7840
7309	101	624	0	23	315	2	94	0	0	0	-552 -795 -915 -889 -732 -489 -249 -78 23 77 99 100 95 89 79 69 64 62 59 52 49 53 59 61 61 58 53 52 55 60 66 72 81 93 105 116 129 144 158 172 186 196 203 205 200 190 178 165 148 128	-34 -26 -16 -4 8	-7832 -7544 -8176 -9236 -9788	-5232 -5564 -5648 -5784 -5860	7868 7792 7688 7504 7604
7310	101	628	0	23	315	2	94	0	0	1	104 77 49 19 -10 -37 -61 -82 -101 -119 -133 -141 -146 -150 -152 -154 -150 -143 -137 -136 -136 -134 -129 -122 -113 -105 -97 -89 -81 -75 -68 -60 -54 -49 -46 -44 -42 -36 -30 -25 -24 -25 -27 -29 -32 -37 -42 -46 -47 -46	18 26 31 34 33	-9700 -10464 -11320 -11232 -10004	-6140 -6268 -5992 -5104 -4660	7496 7452 7692 8380 8924
7311	101	628	0	23	315	2	94	0	0	0	-44 -43 -40 -36 -34 -34 -36 -37 -38 -37 -37 -36 -34 -33 -33 -35 -36 -35 -31 -25 -22 -21 -20 -18 -17 -22 -28 -32 -34 -34 -35 -37 -39 -39 -38 -38 -39 -41 -43 -47 -51 -54 -56 -53 -42 -16 29 97 187 273	27 19 11 3 -4	-9372 -8960 -8884 -8496 -8008	-4920 -5188 -5512 -5508 -5372	8116 8204 8112 7924 7932
7312	101	628	0	23	315	2	94	0	0	0	212 36 -198 -453 -676 -812 -830 -731 -537 -311 -126 -9 60 94 102 100 97 95 89 81 75 67 57 50 47 45 43 42 45 48 50 53 55 59 61 66 75 88 102 116 131 146 162 178 190 198 203 205 205 200	-9 -12 -15 -16 -15	-8236 -8388 -8740 -9700 -9616	-5040 -5132 -5064 -5424 -5448	7728 7628 7340 7068 7044
7313	101	616	0	23	315	2	94	0	0	1	188 171 151 127 100 73 44 17 -8 -30 -50 -69 -86 -100 -110 -117 -119 -119 -118 -116 -114 -112 -111 -104 -93 -87 -84 -82 -82 -80 -74 -67 -62 -57 -52 -46 -41 -34 -28 -24 -23 -21 -19 -18 -19 -19 -20 -21 -23 -27	-14 -12 -10 -10 -12	-9900 -10264 -11148 -9992 -9664	-5640 -5468 -6044 -5828 -6260	7208 7252 7592 8984 8992
7314	101	616	0	23	315	2	94	0	0	0	-32 -36 -41 -42 -42 -43 -42 -42 -44 -46 -46 -44 -40 -35 -33 -32 -33 -31 -23 -12 -9 -15 -26 -39 -50 -57 -64 -69 -70 -68 -68 -71 -74 -76 -72 -67 -63 -60 -57 -54 -51 -49 -46 -42 -29 -3 41 110 210 312	-16 -21 -25 -26 -21	-9400 -9300 -8760 -8684 -7944	-6456 -6060 -5104 -4952 -5216	8632 8272 8040 7940 7900
7315	101	616	0	23	315	2	94	0	0	0	350 277 99 -157 -448 -706 -860 -875 -752 -521 -268 -77 39 105 140 150 145 133 116 99 88 83 76 67 62 60 55 50 49 49 50 48 49 55 64 74 85 96 108 123 140 158 175 193 210 224 237 244 245 241	-13 -3 8 18 26	-7784 -8308 -9140 -10020 -10104	-5492 -5668 -5508 -5512 -5728	7788 7740 7524 7508 7396
7316	99	604	0	23	315	2	94	0	0	1	232 217 198 176 148 118 88 58 31 4 -21 -44 -63 -79 -91 -100 -106 -109 -109 -106 -98 -89 -85 -83 -83 -80 -73 -65 -58 -50 -40 -29 -22 -19 -17 -15 -14 -12 -10 -8 -8 -9 -10 -11 -11 -12 -15 -19 -22 -23	31 35 37 37 34	-10412 -10684 -10160 -9848 -9868	-6148 -5856 -5004 -4432 -4228	7348 7180 8084 8540 8628
7317	99	604	0	23	315	2	94	0	0	0	-26 -31 -33 -35 -37 -38 -39 -41 -45 -49 -50 -50 -48 -44 -39 -31 -24 -22 -24 -26 -25 -21 -19 -22 -31 -39 -43 -45 -47 -49 -51 -54 -57 -60 -59 -56 -54 -51 -49 -48 -46 -43 -39 -35 -30 -26 -16 6 44 105	29 22 14 5 -3	-9976 -8996 -8800 -8404 -8052	-4952 -5336 -5240 -4896 -4728	7868 7756 7724 7548 7492
7318	99	604	0	23	315	2	94	0	0	0	195 294 342 288 130 -105 -375 -624 -783 -815 -724 -531 -297 -100 27 101 139 149 145 139 129 116 108 103 96 88 80 76 74 70 67 65 66 67 67 69 74 79 85 93 104 116 128 142 159 175 188 197 203 208	-9 -12 -10 -5 3	-8396 -8740 -9148 -9832 -9800	-5248 -5072 -5004 -5016 -5580	6924 7240 7396 7380 7096
7319	99	608	0	23	315	2	94	0	0	1	206 197 185 170 152 129 102 74 47 20 -7 -34 -58 -77 -94 -106 -112 -115 -118 -120 -123 -126 -125 -123 -121 -118 -114 -111 -108 -105 -100 -94 -88 -82 -75 -70 -65 -60 -57 -56 -56 -56 -57 -60 -62 -64 -65 -65 -66 -66	12 21 27 29 26	-10864 -10764 -9680 -9636 -9576	-6260 -6036 -5740 -6104 -5724	7144 7696 8400 8344 8188
7320	99	608	0	23	315	2	94	0	0	0	-67 -67 -67 -66 -65 -63 -62 -62 -63 -62 -57 -54 -51 -47 -42 -38 -36 -35 -33 -27 -21 -17 -14 -12 -14 -20 -27 -34 -37 -37 -38 -40 -41 -43 -46 -50 -54 -56 -56 -57 -56 -55 -55 -55 -51 -38 -9 34 100 189	21 14 8 2 -4	-9568 -9200 -8936 -7984 -7856	-5408 -4976 -5096 -5460 -5516	7992 7580 7528 7588 7464
7321	99	608	0	23	315	2	94	0	0	0	279 315 255 94 -150 -429 -672 -805 -799 -666 -446 -219 -52 46 98 118 117 115 115 108 97 87 77 68 61 58 58 61 64 67 69 69 71 72 74 78 83 89 97 106 118 132 149 167 185 199 208 213 216 218	-10 -16 -20 -22 -22	-8168 -8624 -9540 -9724 -9996	-5448 -5580 -5852 -5876 -5836	7584 7584 7388 7560 7184
7322	99	600	0	23	315	2	94	0	0	1	214 200 177 155 137 120 101 80 54 29 5 -19 -43 -59 -69 -76 -83 -90 -94 -96 -94 -90 -86 -81 -75 -72 -70 -70 -69 -64 -58 -51 -46 -43 -41 -37 -35 -36 -37 -40 -44 -50 -53 -54 -54 -54 -57 -62 -64 -63	-18 -14 -10 -10 -12	-11064 -10376 -10180 -10072 -9520	-6076 -5080 -4400 -3920 -3912	7168 8472 8232 8168 7888
7323	99	600	0	23	315	2	94	0	0	0	-61 -61 -60 -59 -59 -59 -59 -62 -64 -63 -61 -58 -56 -53 -51 -50 -51 -50 -45 -33 -21 -17 -20 -30 -41 -50 -57 -62 -65 -63 -58 -53 -50 -47 -44 -42 -39 -36 -35 -36 -38 -39 -39 -38 -37 -33 -19 7 50 118	-18 -26 -33 -37 -35	-9444 -8484 -8220 -8120 -7944	-4536 -5772 -5664 -5060 -4784	7784 7972 7848 7700 7832
7324	99	600	0	23	315	2	94	0	0	0	204 269 266 165 -36 -307 -583 -781 -838 -753 -558 -319 -113 19 93 124 124 112 100 88 77 69 62 57 54 51 49 47 46 45 47 51 54 57 61 66 70 72 76 84 95 106 118 134 150 167 181 190 196 199	-30 -20 -8 2 9	-8716 -9576 -10012 -9784 -11160	-5268 -5584 -5744 -5888 -6080	7316 7596 7280 6940 7264
7325	99	600	0	23	315	2	94	0	0	1	200 199 194 183 166 147 124 101 78 53 28 2 -23 -45 -63 -76 -86 -94 -97 -99 -98 -94 -95 -97 -99 -100 -96 -90 -83 -77 -71 -66 -59 -52 -45 -38 -32 -27 -25 -23 -22 -21 -20 -18 -18 -19 -20 -23 -29 -33	12 12 8 0 -8	-11020 -9964 -9616 -9328 -9072	-5992 -5696 -6096 -6348 -5608	7948 8916 8916 8448 8048
7326	99	600	0	23	315	2	94	0	0	0	-36 -39 -41 -46 -50 -53 -56 -57 -56 -54 -52 -50 -50 -49 -46 -38 -29 -23 -22 -22 -21 -16 -8 0 5 3 -4 -11 -16 -19 -20 -19 -17 -16 -17 -19 -23 -25 -26 -26 -26 -25 -23 -22 -22 -22 -23 -18 -3 23	-16 -19 -19 -15 -9	-8864 -8476 -7904 -7612 -8172	-5184 -4928 -5168 -5744 -5800	7972 7704 7612 7700 7624
7327	99	600	0	23	315	2	94	0	0	0	132 225 307 329 253 62 -217 -510 -722 -789 -706 -505 -261 -61 62 124 149 151 147 138 127 119 113 109 104 96 89 86 82 79 80 86 92 95 98 103 108 114 123 136 150 164 178 195 211 228 245 257 267 273	2 7 12 16 19	-9552 -10140 -10960 -11328 -11016	-6068 -6208 -6212 -5344 -5172	7196 6940 7152 7260 8212
7328	99	612	0	23	315	2	94	0	0	1	273 269 262 252 240 223 201 175 146 117 88 60 32 5 -18 -37 -50 -61 -72 -81 -89 -96 -100 -101 -101 -100 -95 -86 -77 -71 -65 -59 -51 -43 -35 -30 -28 -26 -23 -18 -15 -13 -11 -9 -7 -6 -3 -4 -6 -9	19 17 13 8 4	-10224 -9188 -8884 -8492 -8276	-4556 -4912 -5100 -5400 -5544	8520 8112 7876 7976 7912
7329	99	612	0	23	315	2	94	0	0	0	-12 -15 -17 -17 -18 -19 -18 -15 -13 -11 -9 -8 -7 -5 -2 -1 -2 -2 1 7 17 26 33 33 26 16 4 -8 -15 -15 -15 -15 -16 -15 -13 -11 -8 -8 -11 -13 -12 -11 -9 -8 -9 -6 6 31 70 132	0 -3 -5 -5 -5	-7940 -8072 -8412 -9080 -9792	-5320 -5184 -4948 -5036 -5192	7568 7328 7292 7204 7108
7330	99	612	0	23	315	2	94	0	0	0	218 299 319 246 82 -154 -420 -652 -779 -771 -636 -409 -171 4 110 169 193 197 197 191 178 161 147 140 133 123 114 111 109 106 105 106 107 108 110 114 121 130 142 155 170 185 202 219 237 253 265 273 278 280	-2 0 3 3 1	-9720 -10036 -10636 -11044 -9744	-5484 -5448 -5864 -5996 -6324	7268 7256 7212 7704 9000
7331	99	596	0	23	315	2	94	0	0	1	279 275 266 252 234 214 191 165 137 106 74 43 16 -6 -25 -41 -54 -66 -76 -83 -86 -84 -80 -71 -60 -54 -54 -55 -57 -56 -53 -48 -43 -37 -33 -29 -26 -24 -20 -15 -12 -12 -12 -12 -13 -13 -11 -9 -7 -6	-6 -15 -24 -30 -30	-9812 -9584 -9524 -8572 -7568	-6640 -6232 -5952 -5036 -5160	8804 8468 8440 7932 7428
7332	99	596	0	23	315	2	94	0	0	0	-7 -6 -5 -2 1 4 6 10 13 13 10 6 2 2 5 9 9 6 2 -2 -7 -15 -23 -32 -40 -45 -49 -52 -54 -52 -48 -45 -45 -47 -49 -52 -52 -52 -50 -46 -34 -10 27 83 163 257 318 284 141 -80	-26 -17 -5 6 13	-7376 -7568 -9192 -9288 -9152	-5464 -5756 -5956 -5884 -5832	7308 7916 7976 7684 7616
7333	99	596	0	23	315	2	94	0	0	0	-339 -584 -750 -801 -737 -575 -356 -156 -19 64 109 123 120 117 114 105 93 85 77 69 62 55 48 45 45 46 49 54 59 65 74 81 90 101 114 127 141 156 171 187 206 224 239 249 253 250 241 228 210 189	18 21 22 19 13	-9316 -9908 -11884 -11104 -10244	-5752 -5868 -5480 -4972 -4840	7848 7752 7812 8004 8020
7334	99	576	0	23	315	2	94	0	0	1	144 120 94 68 43 17 -7 -26 -40 -54 -66 -76 -84 -90 -95 -95 -96 -94 -91 -86 -80 -76 -74 -73 -72 -69 -65 -59 -55 -50 -42 -34 -29 -25 -23 -21 -17 -13 -8 -4 0 3 3 0 -1 -1 -1 -1 -1 0	5 -5 -17 -28 -36	-9320 -8768 -8788 -8680 -8384	-4804 -5004 -5460 -5336 -5360	8176 7816 7880 7972 7672
7335	99	576	0	23	315	2	94	0	0	0	-1 -3 -3 -1 3 9 11 7 -1 -12 -22 -31 -40 -45 -43 -38 -38 -43 -53 -60 -58 -53 -54 -60 -64 -63 -59 -57 -58 -59 -56 -49 -34 -7 40 112 204 270 251 131 -63 -298 -538 -734 -837 -825 -695 -478 -255 -91	-42 -47 -49 -51 -51	-8288 -8336 -8840 -8684 -9188	-4760 -4760 -4984 -5464 -5860	7296 7280 6928 6496 6488
7336	100	568	0	23	315	2	94	0	0	1	12 72 97 100 98 93 84 75 67 62 56 51 48 45 43 43 45 49 55 61 70 84 98 108 117 124 132 146 161 176 190 204 216 227 233 234 232 227 219 208 192 171 145 116 86 56 25 -4 -30 -51	-50 -47 -43 -39 -38	-9844 -11968 -11120 -10012 -9188	-5656 -6000 -5952 -5896 -6228	6408 7316 7524 8080 8200
7337	100	568	0	23	315	2	94	0	0	0	-67 -80 -91 -101 -108 -111 -113 -111 -108 -104 -102 -100 -99 -98 -95 -88 -78 -69 -62 -59 -60 -59 -56 -52 -50 -50 -51 -51 -50 -49 -49 -49 -49 -49 -48 -44 -40 -38 -36 -32 -31 -29 -27 -24 -19 -13 -8 -7 -11 -17	-41 -46 -51 -54 -54	-8892 -9096 -8808 -8444 -8004	-6148 -5856 -5584 -5092 -5412	8032 7736 7680 7488 7484
7338	100	568	0	23	315	2	94	0	0	0	-23 -29 -33 -34 -34 -34 -36 -37 -39 -40 -39 -36 -35 -37 -38 -38 -37 -36 -37 -40 -41 -36 -17 17 65 135 223 291 281 169 -27 -277 -533 -727 -808 -764 -607 -384 -175 -31 53 100 116 112 102 88 74 62 54 49	-51 -47 -43 -38 -30	-7732 -7848 -8444 -9644 -9340	-5620 -6064 -6008 -5464 -5976	7292 7200 6972 7276 7116
7339	100	560	0	23	315	2	94	0	0	1	43 39 38 36 34 32 30 30 32 37 45 54 63 71 81 91 104 121 141 160 178 194 207 219 231 239 241 237 227 213 192 167 140 107 72 38 6 -24 -50 -73 -93 -110 -124 -134 -142 -148 -149 -149 -148 -146	-18 -3 13 28 41	-10364 -10816 -10812 -10744 -10200	-6544 -5908 -4592 -4740 -5068	6632 7344 8528 8340 8020
7340	100	560	0	23	315	2	94	0	0	0	-143 -140 -136 -128 -118 -106 -93 -80 -68 -56 -46 -41 -36 -28 -18 -8 -3 -2 -4 -8 -11 -14 -17 -16 -9 -6 -8 -13 -17 -20 -20 -19 -17 -12 -5 0 1 -3 -9 -16 -23 -29 -33 -34 -33 -34 -38 -44 -49 -51	51 58 62 63 60	-9572 -8004 -7412 -7368 -7588	-5600 -5504 -5400 -5052 -4852	8124 7860 7724 7876 7612
7341	100	560	0	23	315	2	94	0	0	0	-49 -50 -50 -51 -51 -51 -49 -51 -56 -57 -49 -27 11 69 150 233 261 189 24 -210 -473 -705 -849 -876 -778 -573 -333 -137 -10 62 96 103 101 95 85 76 71 68 66 65 65 69 76 80 80 72 57 46 47 57	57 56 56 58 61	-8300 -10504 -10268 -9676 -10052	-4916 -5308 -5276 -5776 -5764	7632 7612 7792 7612 7608
7342	100	560	0	23	315	2	94	0	0	1	68 76 82 89 102 118 136 156 175 188 197 204 213 226 232 227 213 194 175 153 128 100 69 38 4 -28 -57 -84 -103 -114 -124 -132 -140 -149 -155 -155 -152 -149 -146 -141 -137 -134 -132 -131 -127 -121 -116 -109 -104 -99	64 65 61 53 42	-10960 -10352 -9852 -9844 -9084	-5392 -5544 -6436 -6480 -5772	8812 9476 9456 9120 8232
7343	100	560	0	23	315	2	94	0	0	0	-94 -89 -86 -82 -77 -71 -66 -68 -72 -77 -77 -71 -64 -59 -56 -51 -46 -43 -43 -37 -24 -13 -7 -7 -12 -15 -12 -6 -4 -8 -16 -25 -35 -46 -53 -58 -62 -63 -64 -66 -68 -71 -74 -77 -80 -80 -79 -77 -74 -70	30 18 8 1 -3	-8564 -7940 -7572 -7736 -8724	-5792 -5232 -5168 -5588 -5452	7924 7664 7820 7836 7968
7344	100	560	0	23	315	2	94	0	0	0	-63 -57 -51 -43 -25 6 59 140 235 296 274 150 -69 -348 -617 -788 -818 -712 -499 -258 -68 48 111 141 148 148 146 137 124 114 104 95 90 90 93 95 93 92 92 93 95 100 105 112 121 127 133 142 153 164	-5 -6 -5 -3 0	-8972 -9016 -9432 -10628 -11108	-5584 -5524 -5516 -5980 -5880	7672 7424 7588 7008 7392
7345	100	572	0	23	315	2	94	0	0	1	176 192 208 223 235 244 250 250 246 238 225 209 188 166 142 119 97 73 47 21 1 -13 -25 -41 -57 -70 -79 -85 -89 -91 -90 -87 -83 -81 -79 -74 -68 -62 -58 -53 -43 -33 -27 -24 -23 -20 -14 -11 -11 -14	3 4 1 -4 -10	-10848 -10100 -9860 -9884 -9312	-5272 -4720 -4820 -5012 -5304	8156 8656 8368 8116 7992
7346	102	572	0	23	315	2	94	0	0	0	-16 -17 -18 -22 -26 -30 -35 -39 -43 -46 -50 -54 -60 -65 -64 -59 -53 -51 -54 -58 -58 -54 -49 -49 -53 -59 -66 -72 -73 -68 -62 -57 -55 -56 -55 -51 -48 -47 -47 -44 -42 -41 -39 -39 -36 -32 -28 -19 -2 27	-16 -22 -26 -30 -33	-8876 -8436 -7548 -7736 -8500	-5124 -5124 -5204 -5196 -5144	7944 7816 7772 7692 7428
7347	102	572	0	23	315	2	94	0	0	0	73 141 218 260 226 108 -84 -321 -555 -718 -764 -688 -513 -292 -91 51 134 176 184 176 169 160 148 136 128 119 107 96 89 85 80 74 71 72 72 70 71 78 86 91 96 103 113 127 142 156 170 187 202 214	-33 -31 -27 -21 -16	-9192 -9984 -10120 -11184 -10840	-5248 -5500 -5768 -6084 -6080	7416 7156 7516 7788 8384
7348	102	576	0	23	315	2	94	0	0	1	225 223 214 203 192 178 162 144 121 96 68 40 15 -10 -34 -55 -69 -78 -85 -89 -93 -96 -98 -97 -96 -94 -90 -87 -83 -80 -74 -63 -53 -46 -41 -37 -35 -33 -26 -18 -14 -10 -6 -6 -7 -5 -3 -4 -1 6	-16 -19 -23 -27 -29	-9328 -9604 -9300 -9580 -9216	-6204 -6508 -6476 -6004 -5240	9160 9008 8760 8408 7996
7349	102	576	0	23	315	2	94	0	0	0	12 19 26 29 33 44 55 62 63 62 63 69 76 75 68 61 53 46 39 34 33 34 40 49 52 50 46 41 37 37 37 36 35 37 40 41 42 48 65 98 150 223 314 386 376 263 74 -154 -373 -537	-27 -23 -18 -13 -9	-7764 -6976 -7532 -8640 -9264	-5224 -5568 -6032 -5828 -5900	8044 8076 8032 7644 7636
7350	102	576	0	23	315	2	94	0	0	0	-607 -575 -449 -257 -64 76 157 202 219 219 216 212 204 195 190 187 183 179 180 183 184 184 183 181 179 179 181 184 189 199 211 222 235 248 260 273 288 305 319 329 336 339 337 331 322 310 294 273 248 218	-7 -4 -1 2 4	-9724 -10116 -10756 -9904 -9896	-6084 -6184 -5312 -4948 -4708	7672 7328 8312 8788 8624
7351	102	564	0	23	315	2	94	0	0	1	187 157 126 95 66 40 19 4 -6 -14 -18 -21 -20 -13 -4 3 7 9 9 9 12 15 17 20 23 26 27 29 32 35 39 43 44 42 41 41 41 41 41 41 44 49 50 47 45 45 43 40 38 38	4 4 2 -1 -4	-9952 -9740 -8524 -8200 -7996	-4904 -5384 -5740 -5452 -5192	8192 8296 7968 8008 7744
7352	102	564	0	23	315	2	94	0	0	0	42 49 53 47 37 27 20 17 17 16 13 9 4 4 5 6 6 7 8 14 25 33 38 41 44 47 49 54 65 91 137 210 302 369 357 245 50 -200 -461 -669 -767 -734 -574 -338 -116 37 125 170 186 186	-6 -7 -6 -3 0	-7960 -8708 -9084 -9544 -9872	-5180 -5148 -5556 -6004 -6068	7604 7360 7272 7284 7364
7353	102	560	0	23	315	2	94	0	0	1	179 169 157 149 145 142 138 135 134 135 134 135 137 139 144 151 155 157 158 160 167 178 191 202 214 230 246 260 273 284 291 293 288 278 264 247 227 205 181 155 127 93 58 27 1 -17 -31 -43 -54 -65	4 8 10 10 6	-10812 -10552 -9884 -9404 -9564	-6472 -6344 -5864 -5988 -6408	7672 7736 8340 8696 8844
7354	102	560	0	23	315	2	94	0	0	0	-74 -78 -78 -72 -63 -58 -58 -60 -57 -50 -44 -41 -41 -39 -30 -23 -20 -18 -13 -6 1 3 0 -5 -8 -10 -15 -20 -25 -31 -36 -39 -35 -29 -25 -26 -29 -34 -38 -40 -39 -36 -31 -25 -23 -27 -34 -43 -54 -63	0 -6 -10 -13 -14	-9936 -9444 -8656 -7900 -7536	-6000 -5576 -5508 -5680 -5740	8276 7964 7864 7900 7844
7355	102	560	0	23	315	2	94	0	0	0	-69 -74 -75 -74 -70 -66 -61 -57 -52 -46 -39 -33 -31 -34 -39 -43 -43 -39 -34 -26 -11 16 64 141 223 263 225 91 -131 -402 -653 -804 -809 -676 -450 -215 -44 54 104 124 123 113 105 96 83 75 75 74 74 76	-15 -16 -17 -16 -12	-7876 -8668 -9412 -9816 -10012	-5624 -5596 -5684 -5760 -6132	7776 7664 7656 7844 7640
7356	105	568	0	23	315	2	94	0	0	1	75 73 71 71 72 79 89 102 112 116 119 124 135 153 179 210 242 269 288 298 303 308 317 318 310 294 274 252 229 202 173 144 117 91 66 43 22 5 -9 -21 -31 -39 -44 -45 -44 -40 -33 -28 -23 -17	-6 -1 2 2 -2	-11468 -11344 -10496 -9600 -9200	-6148 -5496 -5008 -5064 -5108	7708 7996 8632 8348 8324
7357	105	568	0	23	315	2	94	0	0	0	-10 -2 4 8 12 16 22 28 31 35 40 46 55 61 63 60 60 68 82 90 87 78 73 77 82 79 72 74 85 93 91 81 72 76 89 103 109 108 101 88 78 75 77 82 86 87 90 96 100 100	-6 -8 -9 -6 0	-9392 -8684 -8220 -8024 -8128	-5244 -5236 -5432 -4996 -4884	8188 8144 7924 7688 7620
7358	105	568	0	23	315	2	94	0	0	0	102 108 117 123 122 118 116 120 133 151 174 202 243 306 390 468 485 408 256 59 -157 -360 -500 -534 -454 -279 -61 130 260 342 386 396 392 390 390 387 379 373 367 361 357 358 360 362 363 368 374 376 378 385	7 15 22 30 37	-8196 -9232 -9496 -9908 -10276	-5116 -5896 -5860 -5904 -5840	7480 7620 7660 7504 7744
7359	105	568	0	23	315	2	94	0	0	1	395 403 410 415 422 432 447 465 482 498 512 528 544 555 559 560 559 556 555 546 528 503 472 441 412 387 364 339 320 304 291 284 279 277 274 271 273 280 289 297 297 292 288 289 294 302 308 309 309 307	43 48 50 49 47	-11456 -9788 -10120 -9968 -9616	-6424 -5752 -6240 -6332 -5824	8008 9308 9044 8572 8328
7360	105	568	0	23	315	2	94	0	0	0	311 321 333 342 352 362 370 378 384 387 389 392 396 405 415 420 422 424 425 427 431 435 439 446 454 457 451 446 442 438 438 442 446 451 455 461 470 480 489 498 505 511 519 527 536 545 550 557 568 586	43 38 34 31 28	-8408 -7700 -7484 -7488 -8444	-4952 -4904 -5264 -5580 -5580	7964 7876 7820 7892 7664
7361	105	568	0	23	315	2	94	0	0	0	613 653 712 794 887 944 909 766 535 258 -6 -186 -237 -152 42 274 468 595 663 695 709 708 699 692 685 675 664 655 646 638 636 637 631 623 616 612 612 614 617 617 613 613 620 631 645 658 663 667 676 688	26 26 26 26 27	-9292 -9904 -10020 -10024 -11084	-5536 -5592 -5788 -5864 -5272	7700 7392 7580 7480 7660
7362	105	556	0	23	315	2	94	0	0	1	699 708 711 708 703 695 682 663 638 612 583 551 518 485 455 430 404 377 353 332 314 303 294 288 282 278 275 272 271 272 272 269 266 264 262 262 264 268 272 275 277 277 278 279 278 275 272 270 269 267	28 26 22 16 10	-10432 -10052 -10112 -9840 -9080	-4624 -4280 -4308 -5272 -5560	8548 8728 8364 8044 7916
7363	105	556	0	23	315	2	94	0	0	0	268 267 261 250 241 233 224 217 209 202 204 216 228 234 230 215 199 187 177 169 166 165 164 163 159 151 145 141 136 129 122 116 111 110 110 110 113 119 127 144 171 216 289 380 441 422 302 84 -195 -476	4 -1 -5 -9 -12	-8448 -7900 -7448 -8224 -8964	-5324 -5148 -5120 -5228 -5392	7948 7776 7604 7400 7304
7364	105	556	0	23	315	2	94	0	0	0	-674 -732 -642 -437 -188 15 138 201 227 228 220 209 194 179 169 167 166 156 144 133 123 116 114 114 112 110 110 108 105 104 105 105 106 110 115 122 130 138 143 146 148 144 135 125 115 101 84 61 34 4	-14 -13 -8 -1 6	-9464 -9920 -10360 -11504 -10908	-5548 -5628 -5756 -5836 -5900	7348 7192 7212 7732 8724
7365	105	560	0	23	315	2	94	0	0	1	-29 -65 -100 -131 -163 -192 -215 -235 -254 -270 -284 -295 -304 -311 -315 -314 -315 -321 -328 -331 -332 -329 -321 -317 -319 -323 -327 -332 -335 -329 -322 -315 -310 -305 -299 -293 -289 -285 -280 -280 -283 -287 -293 -299 -302 -306 -308 -308 -310 -313	11 12 8 1 -7	-10096 -9784 -9200 -9132 -9120	-6060 -6484 -6360 -6272 -5068	9484 9120 8648 8188 7960
7366	106	560	0	23	315	2	94	0	0	0	-316 -316 -313 -309 -306 -307 -314 -322 -331 -338 -343 -345 -344 -342 -346 -351 -352 -350 -345 -342 -343 -343 -345 -350 -351 -349 -344 -335 -323 -310 -293 -261 -212 -140 -41 51 73 -17 -212 -480 -773 -1004 -1103 -1056 -884 -643 -419 -272 -192 -151	-13 -18 -20 -20 -17	-7468 -7196 -7336 -8060 -9268	-5368 -5752 -5812 -5788 -5788	7728 7860 7940 7700 7536
7367	106	568	0	23	315	2	94	0	0	1	-136 -137 -142 -150 -160 -168 -171 -172 -177 -184 -189 -191 -193 -197 -199 -197 -191 -185 -177 -170 -163 -155 -144 -128 -110 -98 -86 -75 -62 -46 -29 -17 -12 -10 -11 -14 -19 -27 -39 -55 -76 -104 -136 -169 -204 -235 -260 -280 -297 -309	-14 -9 -5 -3 -3	-9448 -9532 -11204 -11416 -10204	-6100 -6028 -6376 -5932 -4572	7680 7532 7468 7684 8668
7368	106	568	0	23	315	2	94	0	0	0	-320 -329 -335 -335 -333 -329 -326 -323 -320 -318 -314 -309 -302 -293 -283 -274 -266 -261 -251 -240 -235 -230 -233 -240 -241 -239 -235 -231 -226 -222 -217 -212 -208 -210 -213 -209 -204 -202 -199 -196 -194 -190 -186 -186 -193 -201 -208 -214 -220 -227	-6 -9 -12 -14 -14	-10136 -9720 -9504 -8436 -8148	-4856 -4956 -5188 -5340 -5196	8392 8200 8316 7916 7776
7369	106	568	0	23	315	2	94	0	0	0	-232 -236 -238 -239 -240 -242 -248 -251 -251 -250 -248 -243 -236 -231 -227 -223 -221 -219 -212 -195 -164 -113 -35 59 128 115 2 -186 -416 -655 -848 -945 -925 -793 -579 -361 -201 -105 -52 -32 -35 -44 -54 -66 -77 -83 -84 -87 -91 -90	-13 -12 -10 -8 -4	-7824 -7664 -8068 -9340 -9912	-5176 -5256 -5308 -5432 -5516	7744 7752 7460 7328 7388
7370	106	552	0	23	315	2	94	0	0	1	-81 -79 -77 -76 -75 -73 -71 -70 -70 -67 -62 -54 -45 -35 -24 -11 6 24 43 61 74 80 79 73 64 56 46 32 16 -3 -27 -53 -80 -105 -126 -143 -158 -173 -188 -201 -209 -214 -217 -218 -216 -212 -207 -202 -196 -191	1 6 11 15 17	-10076 -10168 -10992 -10192 -9424	-5728 -5876 -6128 -5732 -5840	6988 7016 7880 8608 8948
7371	106	552	0	23	315	2	94	0	0	0	-188 -188 -188 -186 -179 -171 -162 -156 -153 -148 -141 -135 -128 -122 -116 -111 -107 -105 -105 -108 -110 -109 -108 -109 -112 -115 -116 -113 -110 -111 -114 -120 -125 -132 -140 -148 -154 -158 -158 -157 -156 -154 -151 -148 -147 -144 -143 -142 -141 -140	15 12 7 5 4	-9440 -9320 -9172 -8676 -8016	-6232 -6204 -5664 -4876 -5360	8768 7944 7904 7696 7720
7372	106	552	0	23	315	2	94	0	0	0	-139 -139 -141 -141 -138 -122 -91 -43 30 123 207 219 124 -64 -315 -583 -805 -920 -908 -773 -546 -315 -150 -54 -6 12 13 10 1 -11 -17 -19 -21 -26 -34 -39 -41 -42 -48 -52 -52 -51 -44 -35 -29 -25 -20 -15 -7 5	5 6 9 11 13	-7412 -8044 -9184 -9156 -9644	-5644 -5748 -6080 -5648 -5584	7768 7636 7548 7508 7600
7373	106	552	0	23	315	2	94	0	0	1	19 34 49 67 83 96 108 119 129 134 135 130 121 108 93 76 56 30 0 -33 -67 -98 -121 -138 -151 -163 -173 -179 -182 -183 -182 -182 -183 -185 -186 -185 -182 -177 -173 -170 -167 -164 -161 -157 -152 -146 -137 -128 -117 -107	15 19 21 21 17	-10228 -10628 -10632 -10120 -9980	-6212 -6220 -5096 -4952 -5052	7204 7348 7988 8500 8028
7374	106	552	0	23	315	2	94	0	0	0	-101 -97 -94 -90 -84 -80 -76 -72 -69 -68 -68 -65 -58 -49 -43 -45 -53 -63 -72 -81 -89 -92 -86 -79 -79 -86 -97 -106 -109 -108 -108 -112 -115 -115 -110 -106 -105 -105 -109 -111 -103 -86 -54 2 86 179 226 181 37 -191	11 4 -3 -9 -14	-9744 -9160 -8680 -8240 -7984	-5252 -5604 -5516 -5296 -4868	8120 7816 7872 7796 7668
7375	106	552	0	23	315	2	94	0	0	0	-467 -727 -891 -919 -810 -592 -345 -152 -37 26 53 57 52 42 27 11 4 5 4 -5 -13 -18 -21 -21 -20 -18 -16 -12 -6 1 7 13 20 30 42 54 67 82 96 112 127 139 147 150 150 146 137 123 107 88	-18 -21 -23 -25 -26	-7740 -8544 -8964 -9816 -10148	-5248 -5396 -5508 -5876 -5736	7680 7428 7528 7220 7180
7376	107	540	0	23	315	2	94	0	0	1	64 37 10 -18 -43 -66 -88 -110 -130 -145 -155 -160 -163 -163 -162 -161 -160 -158 -155 -153 -150 -146 -141 -133 -125 -120 -120 -121 -124 -128 -131 -133 -136 -138 -135 -131 -123 -114 -108 -106 -106 -107 -108 -111 -113 -113 -110 -103 -95 -94	-25 -24 -24 -25 -28	-11212 -10824 -9724 -9676 -9496	-6132 -5808 -5864 -6552 -6212	7572 7856 8832 8632 8284
7377	107	540	0	23	315	2	94	0	0	0	-109 -113 -116 -119 -124 -131 -136 -136 -134 -133 -135 -137 -138 -140 -143 -144 -145 -143 -140 -141 -142 -144 -143 -131 -103 -56 18 110 178 175 81 -112 -382 -665 -878 -952 -869 -660 -402 -188 -54 16 46 53 51 46 36 23 14 8	-32 -35 -34 -32 -28	-9576 -9076 -7928 -7620 -7520	-5900 -5620 -5244 -5640 -5696	8056 8052 7780 7792 7612
7378	107	532	0	23	315	2	94	0	0	1	3 -2 -5 -7 -6 -5 -4 -4 -7 -9 -11 -11 -7 -4 -1 2 6 15 30 52 72 87 98 107 118 128 137 141 135 122 109 93 73 51 26 -3 -34 -64 -89 -108 -123 -135 -145 -155 -161 -160 -160 -160 -157 -153	-24 -19 -13 -5 4	-7928 -9528 -9656 -9796 -10616	-5888 -5348 -5168 -5900 -6744	7564 7356 7560 7440 7436
7379	107	532	0	23	315	2	94	0	0	0	-148 -143 -136 -131 -127 -123 -118 -113 -107 -101 -97 -95 -94 -91 -89 -88 -87 -84 -80 -74 -72 -73 -76 -80 -86 -93 -101 -105 -102 -94 -88 -88 -95 -102 -108 -114 -121 -128 -132 -134 -134 -135 -140 -145 -147 -146 -144 -142 -141 -141	12 19 21 20 18	-10764 -9992 -10064 -9676 -9324	-5408 -4940 -4956 -5028 -5144	8148 8492 8440 7936 8080
7380	107	532	0	23	315	2	94	0	0	0	-139 -134 -127 -120 -116 -114 -107 -88 -53 3 86 178 216 155 0 -227 -488 -720 -863 -886 -791 -599 -378 -198 -78 -1 44 61 63 54 42 35 31 32 36 38 39 41 41 38 35 34 31 25 18 14 16 20 24 30	15 12 10 8 8	-8504 -8044 -7684 -7756 -8812	-5420 -5372 -4968 -4900 -5316	7980 7928 7948 7712 7392
7381	107	536	0	23	315	2	94	0	0	1	39 52 69 85 100 114 128 143 157 167 170 169 163 154 142 126 108 89 66 43 25 9 -9 -29 -50 -67 -80 -88 -93 -96 -96 -93 -88 -83 -74 -65 -57 -51 -46 -38 -30 -21 -12 -2 6 12 16 18 22 28	9 11 14 17 19	-9652 -9644 -10096 -11320 -10448	-5472 -5704 -5888 -6472 -6276	7364 7456 7416 7740 7984
7382	107	536	0	23	315	2	94	0	0	0	32 33 35 40 49 57 63 66 69 72 75 75 70 57 46 40 39 40 42 37 28 22 20 20 19 20 23 27 30 31 29 29 34 39 45 49 53 65 91 137 213 320 419 437 338 137 -131 -408 -624 -724	18 16 11 5 0	-9796 -9528 -9696 -9408 -8996	-5876 -5876 -6292 -6124 -5628	8560 8864 8628 8040 7844
7383	107	536	0	23	315	2	94	0	0	0	-687 -520 -277 -48 110 201 247 266 270 265 256 250 245 239 233 229 228 229 231 234 238 244 254 263 269 275 279 286 296 309 324 339 356 374 391 405 420 436 447 454 456 451 442 431 418 406 390 371 349 324	-2 -3 -3 -2 0	-8364 -7652 -7780 -8332 -9152	-5212 -5260 -5744 -6068 -6156	7664 7712 7712 7548 7552
7384	107	524	0	23	315	2	94	0	0	1	300 274 248 223 202 186 176 170 165 162 162 163 166 167 168 171 177 189 200 206 209 209 210 214 220 225 231 239 248 255 259 262 269 278 286 293 302 312 319 322 324 328 335 342 342 333 321 309 298 287	1 4 7 11 13	-9180 -9776 -11092 -10984 -10220	-5604 -6048 -6448 -5780 -4796	7540 7448 7172 7448 8180
7385	107	524	0	23	315	2	94	0	0	0	272 269 267 264 261 259 258 257 255 253 255 257 260 262 262 263 265 267 271 287 317 369 454 551 601 564 434 217 -55 -317 -492 -526 -413 -186 63 249 359 418 445 452 453 451 445 439 434 431 426 422 418 418	12 9 5 1 -4	-10008 -9964 -9380 -8728 -8308	-4696 -4756 -5348 -5524 -5444	8532 8032 7832 7892 7728
7386	109	528	0	23	315	2	94	0	0	1	423 434 450 464 473 477 480 486 494 505 518 534 552 569 584 599 614 631 648 659 663 660 651 638 624 608 590 571 550 527 501 474 448 422 399 377 358 341 327 318 312 307 301 294 287 284 285 284 284 283	-7 -9 -10 -9 -6	-7840 -7872 -8228 -8792 -10176	-5128 -5092 -5468 -5432 -5556	7732 7680 7564 7516 7268
7387	109	528	0	23	315	2	94	0	0	0	283 285 287 287 284 279 277 276 278 281 283 282 280 279 279 279 281 282 284 286 288 289 286 286 295 307 316 319 314 302 291 281 269 257 249 244 243 239 235 230 225 220 218 215 212 211 213 215 217 216	-2 3 8 10 8	-10188 -10552 -10676 -10188 -9880	-5804 -5892 -6160 -5740 -6452	7252 7364 7544 8388 8768
7388	109	528	0	23	315	2	94	0	0	0	212 207 204 210 229 262 317 399 488 528 474 317 76 -212 -472 -625 -635 -505 -275 -35 137 234 282 298 297 289 280 267 253 243 237 233 229 227 227 229 232 236 239 239 241 243 245 248 251 256 262 270 279 289	0 -10 -22 -31 -38	-9608 -9280 -8956 -8208 -7912	-6512 -6148 -5984 -5212 -5064	8408 8220 7920 7676 7572
7389	109	540	0	23	315	2	94	0	0	1	300 309 319 328 337 343 344 339 331 319 305 287 267 246 227 206 179 148 117 89 67 49 32 17 5 -1 -4 -7 -11 -13 -14 -14 -13 -11 -7 -1 5 9 12 12 12 10 5 4 5 8 12 13 11 10	-41 -43 -43 -43 -41	-7804 -8004 -8872 -9392 -9808	-5396 -5576 -5844 -5740 -5780	7516 7640 7344 7672 7384
7390	109	540	0	23	315	2	94	0	0	0	9 7 9 14 22 30 35 37 35 31 27 22 21 24 27 28 23 14 7 2 -1 -1 -4 -10 -15 -21 -25 -29 -35 -40 -43 -42 -39 -39 -43 -47 -50 -53 -52 -49 -39 -21 11 64 146 237 278 215 50 -188	-37 -32 -26 -21 -18	-9832 -10872 -10380 -10052 -10060	-6020 -6172 -4816 -4420 -4840	7376 7336 8160 8432 8144
7391	109	540	0	23	315	2	94	0	0	0	-453 -683 -822 -846 -756 -574 -362 -188 -73 -5 31 41 39 32 21 13 11 9 4 -6 -18 -28 -33 -35 -36 -36 -36 -37 -39 -39 -35 -30 -24 -17 -9 0 10 24 42 59 72 82 92 101 107 108 102 91 76 58	-17 -16 -15 -14 -12	-9504 -8712 -8436 -8264 -7920	-4944 -5552 -5364 -5104 -5144	7932 7892 7876 7728 7600
7392	109	548	0	23	315	2	94	0	0	1	13 -11 -36 -64 -94 -121 -146 -168 -189 -209 -225 -235 -239 -238 -236 -232 -229 -227 -227 -228 -227 -218 -208 -202 -199 -198 -196 -190 -182 -176 -173 -174 -175 -176 -174 -169 -164 -162 -162 -162 -161 -159 -158 -157 -156 -155 -153 -149 -147 -148	-9 -4 1 8 14	-8300 -8748 -9672 -9812 -10256	-5200 -5292 -5652 -5840 -5908	7532 7500 7308 7208 7112
7393	109	548	0	23	315	2	94	0	0	0	-153 -164 -174 -180 -184 -185 -185 -187 -190 -194 -195 -195 -198 -201 -200 -194 -185 -178 -180 -188 -195 -196 -192 -185 -175 -158 -128 -79 -3 97 176 173 63 -144 -419 -704 -917 -1002 -944 -759 -512 -296 -152 -70 -27 -11 -10 -16 -25 -34	21 26 26 22 14	-11004 -10536 -9668 -9472 -8888	-6056 -5932 -5844 -5996 -6020	7764 8380 8420 8756 8424
7394	109	540	0	23	315	2	94	0	0	1	-41 -45 -49 -55 -61 -63 -64 -64 -63 -61 -59 -59 -60 -59 -55 -48 -39 -27 -13 1 15 29 47 67 81 88 89 86 81 77 70 59 48 35 18 -3 -28 -56 -85 -113 -139 -161 -181 -201 -219 -232 -241 -246 -249 -251	5 -2 -5 -4 -2	-8724 -8444 -8456 -7972 -8260	-5548 -5092 -5048 -5736 -5768	8024 8128 8092 7844 7988
7395	109	540	0	23	315	2	94	0	0	0	-253 -253 -251 -248 -243 -238 -231 -224 -219 -216 -215 -212 -207 -198 -192 -188 -184 -181 -176 -171 -167 -165 -164 -163 -163 -163 -162 -161 -157 -150 -143 -138 -137 -139 -144 -148 -147 -143 -139 -135 -135 -137 -139 -143 -145 -147 -148 -146 -143 -142	1 3 4 7 9	-8652 -9056 -9488 -10004 -10972	-5860 -5844 -5596 -5928 -6108	7784 7724 7728 7460 7052
7396	111	540	0	23	315	2	94	0	0	0	-142 -141 -138 -136 -132 -127 -125 -127 -128 -127 -124 -119 -115 -109 -98 -78 -45 13 97 179 206 141 -30 -286 -567 -794 -894 -844 -665 -424 -218 -93 -33 -11 -8 -13 -22 -34 -44 -47 -45 -48 -52 -54 -55 -55 -56 -57 -56 -52	13 16 18 17 16	-10856 -10952 -10188 -9680 -9472	-5504 -4764 -4296 -4648 -5048	7532 8552 8460 8368 8036
7397	111	560	0	23	315	2	94	0	0	1	-45 -38 -32 -29 -27 -24 -18 -9 1 11 22 35 49 63 74 83 90 95 96 93 84 70 54 37 19 1 -19 -41 -66 -94 -122 -148 -168 -184 -196 -207 -219 -226 -230 -232 -231 -227 -218 -209 -201 -193 -187 -181 -174 -166	13 11 10 9 11	-8552 -8072 -7824 -7904 -8300	-5448 -4856 -4732 -4960 -4940	8020 7808 7816 7672 7624
7398	111	560	0	23	315	2	94	0	0	0	-161 -158 -157 -158 -160 -158 -154 -151 -148 -143 -137 -133 -132 -132 -128 -123 -121 -123 -127 -131 -134 -136 -137 -136 -131 -127 -125 -126 -127 -128 -130 -133 -134 -132 -127 -122 -121 -123 -127 -131 -134 -134 -134 -133 -133 -134 -133 -131 -129 -126	14 17 20 23 26	-9656 -10264 -9980 -10212 -10276	-5196 -5348 -5692 -5596 -5680	7452 7248 7292 7188 7036
7399	111	560	0	23	315	2	94	0	0	0	-120 -121 -123 -124 -126 -127 -126 -124 -117 -99 -70 -26 44 136 206 197 86 -116 -380 -646 -839 -906 -841 -661 -427 -222 -87 -11 27 38 34 28 20 7 -4 -12 -17 -20 -22 -22 -25 -29 -32 -32 -31 -28 -25 -21 -15 -9	27 23 17 11 7	-9388 -10092 -10108 -8572 -7628	-5748 -6672 -6720 -4924 -4840	9224 8864 8560 7820 7740
7400	111	580	0	23	315	2	94	0	0	1	-1 8 20 34 49 66 83 100 119 139 155 168 175 179 182 182 174 158 136 111 84 57 30 2 -24 -49 -74 -97 -118 -134 -147 -156 -163 -168 -172 -175 -176 -174 -171 -168 -164 -159 -155 -149 -144 -139 -134 -125 -116 -107	7 10 17 26 34	-7124 -7892 -9180 -9924 -9760	-5176 -5556 -5520 -5436 -5960	7736 7616 7524 7396 7392
7401	111	580	0	23	315	2	94	0	0	0	-99 -92 -85 -82 -83 -84 -85 -85 -82 -79 -79 -77 -73 -71 -73 -76 -79 -80 -79 -78 -75 -67 -61 -62 -68 -79 -86 -85 -79 -72 -68 -67 -69 -72 -75 -75 -72 -66 -62 -61 -62 -64 -66 -67 -68 -69 -70 -70 -69 -68	40 45 48 47 41	-9776 -11332 -10680 -10228 -10500	-6068 -5964 -4996 -4756 -4828	7188 7464 8288 8992 8124
7402	111	580	0	23	315	2	94	0	0	0	-66 -65 -66 -65 -54 -30 11 73 158 248 284 215 43 -197 -455 -680 -815 -836 -746 -562 -340 -155 -35 34 70 80 78 75 67 55 46 42 39 36 33 31 28 27 28 28 28 27 27 26 28 31 35 41 50 60	33 23 14 6 -1	-9656 -8800 -7796 -7404 -7748	-5524 -5612 -5492 -5040 -5216	8044 7868 7892 7744 7532
7403	111	584	0	23	315	2	94	0	0	1	71 85 101 119 136 151 163 171 176 178 178 174 164 149 129 105 79 51 23 -6 -34 -59 -80 -93 -108 -125 -143 -156 -163 -163 -161 -160 -160 -156 -151 -146 -142 -138 -134 -128 -121 -115 -109 -102 -96 -91 -87 -85 -83 -79	-5 -6 -5 -1 3	-8256 -10056 -10096 -9876 -10420	-5032 -5548 -5460 -5660 -5568	7492 7328 7172 7196 7036
7404	111	584	0	23	315	2	94	0	0	0	-74 -70 -66 -64 -64 -63 -63 -63 -61 -58 -57 -55 -54 -53 -52 -52 -52 -48 -42 -39 -40 -39 -36 -30 -25 -25 -29 -34 -38 -39 -43 -47 -51 -53 -56 -60 -64 -69 -74 -76 -76 -75 -75 -74 -72 -70 -67 -65 -58 -39	7 10 8 1 -8	-10688 -10224 -9992 -10052 -9576	-5980 -5440 -5808 -6456 -5600	7584 8660 8740 8180 7836
7405	111	584	0	23	315	2	94	0	0	0	-7 42 119 219 299 296 181 -35 -315 -596 -802 -881 -821 -637 -391 -174 -28 55 98 113 114 108 99 91 89 89 88 84 79 76 73 71 68 67 67 72 79 87 95 101 107 113 119 128 138 148 160 173 188 202	-18 -27 -32 -32 -30	-9132 -8368 -7380 -7344 -7948	-4992 -5032 -5228 -5512 -5804	7924 7712 7604 7588 7564
7406	109	576	0	23	315	2	94	0	0	1	222 225 225 222 216 206 193 173 151 125 97 66 32 0 -27 -49 -68 -83 -93 -100 -108 -116 -124 -130 -132 -131 -129 -127 -123 -115 -108 -104 -101 -98 -91 -82 -74 -67 -62 -60 -58 -56 -55 -55 -55 -53 -52 -51 -49 -46	-24 -17 -9 0 8	-8672 -9816 -9912 -10604 -11416	-5940 -5808 -5920 -6224 -6096	7616 7340 7140 7048 6948
7407	109	576	0	23	315	2	94	0	0	0	-43 -40 -38 -39 -41 -42 -42 -41 -40 -37 -32 -26 -22 -14 -4 2 4 4 3 2 1 1 3 6 10 13 8 0 -10 -21 -34 -46 -53 -56 -57 -56 -57 -59 -63 -67 -71 -74 -77 -78 -79 -81 -82 -83 -83 -78	14 16 14 10 4	-11064 -9992 -9684 -9032 -8848	-5144 -4544 -4824 -4772 -5208	7748 8468 7948 7852 7832
7408	109	576	0	23	314	2	94	0	0	0	-61 -30 25 107 193 230 184 42 -186 -465 -729 -892 -907 -777 -540 -285 -93 19 78 106 116 118 114 103 87 75 72 69 64 60 59 56 54 54 56 58 59 61 65 70 74 80 87 95 106 118 130 140 149 157	-1 -6 -9 -9 -8	-8088 -7868 -7880 -8168 -8736	-5320 -5236 -5136 -5120 -5068	7716 7560 7476 7424 7396
7409	109	608	0	23	314	2	94	0	0	1	168 180 190 195 195 189 177 164 149 130 109 87 63 39 19 1 -20 -45 -70 -93 -112 -124 -132 -140 -146 -148 -149 -149 -147 -144 -141 -137 -133 -127 -119 -110 -101 -93 -86 -81 -78 -75 -73 -71 -68 -64 -61 -58 -53 -48	-4 1 6 9 10	-9852 -10252 -10296 -10816 -10236	-5440 -5736 -5680 -5868 -5584	7168 7056 7016 7088 8272
7410	109	608	0	23	314	2	94	0	0	0	-45 -46 -47 -47 -47 -44 -41 -39 -37 -34 -32 -32 -32 -31 -30 -29 -31 -30 -28 -28 -31 -31 -28 -25 -21 -16 -14 -15 -17 -23 -33 -42 -48 -51 -52 -55 -58 -60 -61 -62 -63 -64 -65 -64 -61 -58 -57 -55 -53 -47	8 3 -3 -10 -13	-9548 -9644 -9432 -9096 -8796	-5616 -6616 -6588 -5556 -5180	8796 8664 8292 8000 7736
7411	109	608	0	23	314	2	94	0	0	0	-30 0 46 115 206 286 291 187 -7 -260 -524 -741 -851 -834 -700 -481 -247 -68 41 101 124 123 117 114 106 95 88 87 86 80 75 73 72 71 71 71 71 73 75 78 79 80 83 89 95 102 110 120 132 145	-12 -8 -1 9 19	-7972 -7360 -7200 -8548 -9344	-5120 -5516 -5796 -5628 -5804	7692 7672 7808 7592 7544
7412	109	600	0	23	314	2	94	0	0	1	158 168 175 181 183 180 175 169 159 145 127 106 82 57 32 6 -20 -45 -70 -93 -114 -130 -138 -141 -145 -150 -155 -160 -162 -159 -157 -155 -152 -147 -140 -134 -128 -121 -113 -105 -95 -86 -78 -69 -59 -51 -43 -37 -32 -28	27 34 38 40 39	-9524 -9900 -11292 -11180 -10152	-5992 -6080 -6384 -5716 -5160	7520 7404 7084 7668 8572
7413	109	600	0	23	314	2	94	0	0	0	-25 -23 -22 -21 -19 -19 -19 -19 -19 -20 -22 -24 -24 -23 -20 -16 -12 -6 2 6 4 1 -2 -2 -1 -4 -12 -22 -31 -36 -40 -43 -42 -42 -41 -39 -39 -39 -39 -40 -41 -44 -44 -43 -43 -44 -45 -44 -35 -13	34 25 15 4 -8	-9856 -9612 -9464 -8812 -8324	-4816 -5060 -5456 -5672 -5532	8788 7984 7968 7868 7820
7414	109	600	0	23	314	2	94	0	0	0	84 173 276 334 287 133 -102 -372 -627 -804 -863 -794 -606 -361 -147 -5 76 115 126 129 129 124 117 114 114 113 108 99 91 88 87 86 85 85 86 87 88 91 96 103 109 115 123 134 148 163 178 193 209 223	-17 -25 -31 -34 -34	-7984 -7848 -8360 -8964 -9800	-5192 -5176 -5168 -5404 -5504	7664 7332 7184 7308 7300
7415	109	596	0	23	314	2	94	0	0	1	232 238 239 234 225 213 196 177 155 130 104 79 51 24 -3 -28 -50 -67 -80 -89 -95 -100 -103 -107 -108 -105 -100 -94 -87 -79 -73 -68 -62 -56 -47 -38 -30 -22 -14 -6 1 6 9 9 8 8 8 6 2 -3	-34 -32 -30 -28 -28	-10360 -10944 -10608 -9784 -9192	-5756 -5812 -5788 -5568 -6332	6676 6772 7304 7988 8232
7416	106	596	0	23	314	2	94	0	0	0	-9 -16 -23 -31 -39 -46 -51 -55 -57 -57 -55 -53 -51 -49 -49 -52 -55 -57 -57 -53 -50 -46 -44 -45 -46 -47 -45 -38 -28 -23 -25 -33 -43 -50 -55 -58 -60 -62 -64 -67 -70 -74 -77 -77 -74 -69 -64 -59 -55 -54	-29 -30 -29 -26 -20	-9276 -9352 -8960 -8856 -7840	-6328 -5648 -5480 -4956 -5344	8000 7728 7684 7748 7608
7417	106	596	0	23	314	2	94	0	0	0	-56 -55 -49 -34 -5 40 112 209 295 312 227 31 -253 -568 -817 -923 -868 -675 -411 -169 -6 85 125 129 119 109 98 82 67 60 56 52 48 45 42 39 36 35 36 38 41 47 55 61 65 71 78 88 101 115	-12 -3 5 12 16	-7804 -8012 -8552 -9720 -9956	-5648 -5644 -5700 -5444 -5696	7660 7592 7464 7280 7096
7418	106	624	0	23	315	2	94	0	0	1	128 142 156 169 181 190 194 194 190 183 173 159 143 125 107 92 75 55 32 7 -17 -37 -54 -68 -78 -85 -88 -91 -93 -92 -89 -85 -82 -78 -73 -66 -58 -48 -38 -28 -20 -15 -12 -13 -13 -12 -13 -14 -14 -13	18 19 17 14 7	-10516 -11256 -10680 -10052 -9804	-6112 -6120 -4904 -4592 -4860	7080 7056 8516 8304 7920
7419	106	624	0	23	315	2	94	0	0	0	-13 -12 -12 -15 -19 -25 -29 -33 -34 -34 -36 -39 -40 -41 -40 -40 -41 -41 -42 -43 -44 -41 -34 -31 -32 -35 -37 -33 -26 -23 -25 -28 -31 -33 -30 -23 -15 -9 -9 -16 -25 -34 -39 -43 -45 -45 -47 -49 -52 -52	-2 -10 -18 -24 -27	-9112 -8860 -8164 -8040 -7968	-4772 -5312 -5464 -5240 -5084	8040 8036 7768 7664 7536
7420	106	624	0	23	315	2	94	0	0	0	-51 -48 -47 -48 -48 -46 -44 -44 -44 -41 -34 -17 13 59 129 220 297 299 202 22 -217 -478 -702 -827 -825 -699 -486 -259 -83 27 90 117 118 114 112 104 94 85 82 81 79 78 80 81 78 74 70 66 64 63	-28 -27 -24 -20 -15	-8204 -9216 -9720 -9928 -10244	-5088 -5428 -5564 -5404 -5352	7352 7144 7092 7076 7108
7421	106	628	0	23	315	2	94	0	0	1	63 64 66 72 80 88 98 112 125 136 147 158 170 181 188 190 188 182 176 168 157 144 129 109 83 55 27 0 -26 -50 -71 -89 -101 -108 -114 -118 -122 -123 -122 -121 -117 -113 -111 -108 -106 -102 -98 -94 -89 -84	-9 -6 -5 -7 -11	-10952 -10352 -9840 -9536 -9688	-6012 -5752 -5912 -6292 -6396	7476 8440 8872 8960 8468
7422	106	628	0	23	315	2	94	0	0	0	-80 -76 -74 -71 -66 -62 -60 -57 -55 -53 -48 -43 -41 -40 -40 -41 -41 -37 -33 -33 -37 -43 -48 -51 -52 -53 -53 -51 -47 -43 -38 -33 -24 -15 -9 -10 -17 -26 -33 -38 -41 -42 -42 -42 -42 -41 -39 -36 -32 -28	-16 -19 -19 -15 -6	-9236 -8940 -8280 -7464 -7788	-5468 -5256 -5124 -5408 -5652	7992 7844 7748 7888 7792
7423	106	628	0	23	315	2	94	0	0	0	-26 -24 -22 -22 -20 -18 -16 -14 -7 13 47 100 176 262 326 318 211 24 -213 -457 -649 -734 -705 -577 -387 -198 -56 35 91 118 122 118 111 98 83 73 65 58 50 44 38 33 28 27 27 27 28 31 36 38	5 18 31 42 52	-8364 -9080 -9460 -9936 -11096	-5628 -5696 -5772 -6016 -5964	7676 7436 7824 7664 7548
7424	106	596	0	23	315	2	94	0	0	1	37 38 43 53 64 71 81 95 110 125 139 153 164 173 179 181 181 179 176 166 148 126 98 67 38 12 -12 -35 -54 -70 -83 -93 -100 -104 -107 -107 -105 -102 -99 -98 -97 -95 -90 -86 -83 -79 -73 -67 -61 -54	57 57 51 40 27	-11608 -10964 -10200 -9024 -8688	-5564 -5020 -4772 -4988 -5040	7568 8628 8648 7636 8084
7425	106	596	0	23	315	2	94	0	0	0	-48 -42 -35 -29 -24 -18 -13 -9 -7 -3 -1 -1 -1 4 15 22 24 22 17 13 13 13 10 6 4 3 6 13 20 22 17 7 -1 -5 -9 -12 -13 -13 -13 -11 -10 -10 -12 -14 -16 -17 -17 -15 -13 -12	14 2 -8 -13 -16	-8424 -7944 -8108 -8428 -8900	-5336 -5196 -5276 -5088 -5200	7604 7500 7512 7416 7380
7426	103	596	0	23	315	2	94	0	0	0	-12 -11 -8 2 24 64 125 209 298 340 286 131 -91 -339 -568 -726 -783 -732 -580 -369 -166 -20 72 122 138 136 131 122 108 97 91 88 83 77 73 70 68 68 70 72 76 80 84 87 90 91 93 100 110 124	-17 -15 -13 -11 -9	-9388 -9680 -10052 -10212 -10676	-5176 -5588 -5760 -5704 -5776	7288 7256 7072 6940 7456
7427	103	580	0	23	315	2	94	0	0	1	139 154 168 184 201 217 229 237 242 244 241 235 224 207 189 170 147 117 85 51 18 -9 -30 -48 -63 -73 -77 -79 -79 -78 -76 -74 -72 -72 -71 -70 -67 -63 -59 -56 -54 -52 -51 -46 -40 -35 -31 -28 -27 -25	-9 -11 -16 -22 -27	-10528 -9500 -9644 -9528 -9164	-5788 -6136 -6360 -5888 -5520	8164 8828 8332 8088 7996
7428	103	580	0	23	314	2	94	0	0	0	-20 -17 -15 -15 -15 -16 -15 -14 -12 -8 -3 2 6 11 17 21 21 18 18 24 36 47 49 42 33 24 13 5 1 -1 -5 -10 -12 -14 -14 -10 -8 -9 -7 -5 -1 3 6 9 13 18 33 62 110 182	-28 -26 -20 -11 -1	-8316 -7720 -7528 -7936 -9236	-4904 -5172 -5464 -5520 -5904	7716 7668 7592 7600 7400
7429	103	580	0	23	314	2	94	0	0	0	280 368 384 292 90 -196 -499 -735 -842 -801 -624 -371 -136 27 123 174 195 199 192 176 158 147 142 138 132 129 129 128 126 124 124 124 123 123 124 126 131 137 144 152 162 175 190 206 223 236 248 258 265 270	7 13 18 20 20	-9576 -9692 -9784 -10736 -10716	-6004 -5984 -5972 -6144 -5476	7388 7276 7476 7268 8516
7430	103	576	0	23	314	2	94	0	0	1	274 273 267 256 240 221 199 173 145 114 85 56 28 2 -23 -44 -63 -79 -92 -103 -110 -111 -106 -103 -103 -107 -111 -112 -108 -104 -101 -97 -91 -83 -76 -71 -66 -59 -50 -42 -35 -28 -23 -20 -17 -16 -17 -19 -20 -21	17 10 2 -7 -16	-10284 -10136 -9572 -8724 -8204	-4832 -4644 -4568 -5484 -5472	8504 8136 7832 7864 7768
7431	103	576	0	23	314	2	94	0	0	0	-21 -20 -18 -18 -17 -16 -14 -13 -14 -15 -18 -16 -9 -1 5 9 10 13 14 8 0 -8 -15 -20 -24 -28 -33 -37 -36 -34 -31 -29 -29 -29 -30 -30 -29 -28 -25 -18 -2 25 70 144 234 290 262 135 -78 -346	-23 -28 -31 -32 -31	-8000 -7904 -8204 -8976 -9800	-5348 -5172 -4908 -5148 -5308	7748 7676 7284 7160 6980
7432	103	576	0	23	314	2	94	0	0	0	-615 -807 -865 -780 -577 -324 -111 23 98 135 145 142 136 126 115 107 103 97 90 83 78 74 71 71 74 74 72 69 69 73 80 88 95 103 113 125 139 155 172 188 202 213 222 229 232 230 225 215 198 177	-28 -24 -21 -18 -17	-9936 -10084 -10708 -11064 -10308	-5300 -5612 -5772 -5652 -5376	7032 7044 7008 7612 8624
7433	103	572	0	23	314	2	94	0	0	1	154 128 101 74 47 22 -5 -31 -55 -76 -95 -109 -119 -124 -126 -127 -128 -129 -125 -115 -108 -104 -103 -103 -103 -100 -96 -89 -81 -71 -62 -58 -55 -53 -51 -48 -46 -44 -41 -38 -35 -33 -32 -33 -32 -30 -29 -29 -30 -32	-19 -25 -31 -35 -35	-9840 -9504 -9060 -8924 -8592	-5836 -6372 -5704 -5476 -5096	9000 8072 7956 7924 7676
7434	103	572	0	23	314	2	94	0	0	0	-34 -36 -38 -38 -38 -36 -34 -34 -34 -30 -23 -18 -15 -13 -11 -13 -21 -33 -44 -53 -55 -55 -57 -59 -57 -54 -50 -46 -42 -41 -40 -38 -37 -37 -39 -39 -28 -4 37 96 178 274 335 296 144 -90 -365 -625 -806 -865	-28 -17 -1 15 31	-7456 -7580 -7984 -8432 -9216	-5164 -5640 -5720 -5700 -5716	7600 7584 7608 7452 7132
7435	103	572	0	23	314	2	94	0	0	0	-627 -396 -184 -37 52 102 119 118 111 104 94 84 77 70 61 55 52 52 55 63 71 75 76 74 71 72 75 77 80 90 102 114 125 137 150 164 180 196 209 220 229 233 229 219 204 188 169 149 124 95	44 55 64 69 69	-9716 -10280 -10972 -10860 -10128	-5600 -5916 -6080 -5172 -4492	6932 6776 6704 7396 8120
7436	101	588	0	23	314	2	94	0	0	1	67 40 12 -15 -40 -62 -78 -91 -103 -110 -113 -114 -114 -114 -108 -102 -99 -101 -105 -108 -106 -98 -89 -81 -72 -64 -58 -52 -48 -42 -38 -35 -34 -32 -29 -27 -26 -25 -25 -24 -24 -23 -22 -21 -20 -18 -17 -15 -14 -15	65 56 45 31 18	-9872 -9516 -9228 -8232 -7988	-4604 -4700 -5204 -5312 -5028	7800 7748 7520 7456 7452
7437	101	588	0	23	314	2	94	0	0	0	-16 -17 -13 -11 -11 -12 -18 -25 -32 -40 -46 -47 -44 -42 -41 -44 -46 -46 -46 -44 -39 -32 -28 -28 -33 -39 -43 -44 -39 -24 4 51 123 217 303 321 228 33 -230 -506 -733 -856 -852 -725 -506 -270 -87 28 92 120	5 -4 -11 -14 -15	-7852 -8192 -8576 -9556 -9900	-5048 -5136 -5140 -5340 -5476	7340 7276 7060 6884 6980
7438	101	576	0	23	314	2	94	0	0	1	125 121 114 103 92 83 76 70 65 60 57 55 53 53 53 56 62 69 74 77 78 82 90 101 114 128 143 159 175 190 208 224 235 239 236 225 210 193 173 152 129 103 73 44 14 -14 -39 -60 -79 -96	-13 -11 -10 -10 -12	-10036 -10660 -10372 -9492 -9532	-5704 -5716 -6068 -6144 -6540	6872 6672 7736 8280 8348
7439	101	576	0	23	314	2	94	0	0	0	-109 -118 -124 -127 -130 -133 -135 -132 -127 -122 -118 -115 -112 -110 -108 -105 -98 -86 -71 -62 -58 -54 -45 -33 -23 -16 -13 -13 -10 -8 -7 -6 -3 1 5 7 7 6 3 0 -3 -4 -4 -3 0 4 7 8 9 12	-16 -19 -18 -12 -2	-9160 -8972 -8748 -8416 -7900	-6432 -5912 -5480 -5528 -5544	8104 7952 7904 7844 7804
7440	101	576	0	23	314	2	94	0	0	0	19 29 39 44 41 33 24 15 9 6 4 4 4 3 2 3 5 12 19 17 10 3 -6 -12 -16 -20 -21 -10 14 51 113 207 310 372 349 202 -67 -399 -694 -852 -834 -661 -404 -168 -11 73 110 121 122 120	11 24 35 40 41	-7912 -8632 -9088 -9336 -9732	-5540 -5300 -5608 -5616 -5560	7756 7444 7380 7240 7068
7441	101	592	0	23	314	2	94	0	0	1	112 102 95 93 90 86 83 83 85 85 84 85 88 92 97 102 106 109 113 120 131 144 159 176 195 209 222 236 247 254 253 247 237 226 213 194 171 148 125 101 74 47 20 -5 -30 -54 -74 -89 -101 -112	39 35 29 21 13	-11268 -10824 -10108 -9868 -9480	-5664 -4860 -5104 -5060 -5576	6812 6936 7808 8140 7880
7442	101	592	0	23	314	2	94	0	0	0	-120 -126 -127 -125 -125 -124 -123 -120 -115 -110 -103 -96 -86 -76 -68 -61 -57 -56 -51 -41 -36 -37 -39 -42 -44 -41 -36 -34 -32 -28 -25 -25 -27 -30 -36 -42 -47 -51 -51 -50 -48 -46 -40 -32 -26 -20 -18 -21 -27 -28	4 -4 -12 -18 -22	-8864 -8264 -8244 -8012 -7856	-5096 -5508 -5296 -4884 -4696	7632 7400 7664 7548 7348
7443	101	592	0	23	314	2	94	0	0	0	-15 -6 1 3 5 7 4 -1 -8 -14 -19 -23 -27 -29 -32 -35 -37 -38 -39 -39 -39 -38 -41 -42 -39 -33 -18 14 62 136 236 332 359 278 93 -168 -458 -710 -855 -864 -740 -521 -282 -97 21 90 123 130 127 120	-25 -26 -25 -21 -14	-8792 -9284 -10124 -10052 -10500	-5544 -5292 -5700 -5224 -5432	7296 7040 7076 6912 7016
7444	101	600	0	23	314	2	94	0	0	1	109 98 92 89 85 80 78 80 83 84 84 84 87 90 94 96 99 103 110 124 136 143 148 154 163 176 190 204 215 223 226 224 216 205 190 172 153 133 111 86 58 28 0 -25 -49 -72 -92 -105 -113 -118	-7 0 3 1 -4	-10844 -10524 -9800 -9524 -8996	-5716 -5712 -5532 -6004 -6000	7132 7900 8292 7816 7916
7445	101	600	0	23	314	2	94	0	0	0	-119 -119 -119 -119 -116 -114 -112 -110 -108 -107 -104 -99 -90 -80 -68 -57 -51 -45 -37 -31 -25 -21 -19 -17 -15 -13 -13 -13 -12 -11 -12 -14 -18 -20 -17 -12 -6 -2 1 4 7 10 9 4 0 0 4 8 7 0	-9 -13 -15 -16 -14	-8868 -8444 -7668 -7840 -8180	-5332 -4792 -5260 -5484 -5660	7652 7496 7352 7204 7104
7446	101	600	0	23	314	2	94	0	0	0	-8 -15 -18 -19 -20 -19 -20 -23 -26 -31 -34 -34 -32 -33 -35 -39 -40 -40 -40 -40 -35 -21 1 38 93 167 254 315 302 194 1 -256 -534 -760 -869 -838 -683 -458 -243 -85 18 79 106 114 117 115 108 99 92 85	-12 -10 -8 -7 -7	-8920 -9436 -9596 -9996 -11204	-5764 -5204 -5544 -6152 -6044	6924 6872 6528 6652 6704
7447	101	580	0	23	314	2	94	0	0	1	77 69 65 63 61 59 57 55 54 57 61 66 71 75 80 90 104 116 124 131 139 148 161 176 187 195 198 198 192 181 167 151 130 106 82 57 31 6 -17 -37 -54 -68 -83 -97 -109 -116 -118 -119 -121 -121	-10 -16 -25 -35 -43	-10516 -9928 -9624 -9352 -9060	-5840 -5424 -5064 -4876 -5008	6924 7812 7356 7524 7324
7448	101	580	0	23	314	2	94	0	0	0	-118 -113 -109 -107 -106 -107 -105 -99 -91 -80 -70 -66 -66 -63 -58 -51 -44 -39 -36 -33 -29 -25 -19 -13 -7 -6 -9 -14 -18 -22 -28 -32 -35 -39 -41 -43 -45 -46 -47 -46 -44 -43 -44 -44 -41 -37 -32 -29 -33 -39	-47 -49 -48 -43 -36	-8208 -8064 -8160 -9316 -9688	-5236 -5312 -5304 -4696 -5244	7700 7536 7260 6708 6840
7449	101	580	0	23	314	2	94	0	0	0	-44 -51 -60 -67 -70 -69 -68 -67 -66 -64 -63 -63 -62 -59 -54 -51 -49 -45 -40 -37 -33 -23 0 40 104 196 295 349 308 157 -95 -400 -683 -862 -894 -781 -560 -313 -121 2 72 106 116 115 108 95 83 77 74 71	-28 -18 -7 3 11	-10056 -10036 -10412 -10204 -9404	-5592 -5664 -5636 -6064 -5816	6708 6692 6520 7692 8164
7450	101	600	0	23	314	2	94	0	0	1	64 64 65 67 68 67 66 67 70 73 74 72 72 76 83 94 107 121 134 147 159 171 184 198 206 204 195 180 165 150 134 114 92 71 49 26 1 -23 -47 -68 -86 -100 -109 -113 -114 -113 -112 -113 -116 -119	16 17 16 13 12	-9768 -9868 -9180 -8636 -8028	-6296 -6484 -5408 -4892 -4728	7928 7624 7464 7420 7380
7451	101	600	0	23	314	2	94	0	0	0	-120 -118 -114 -111 -110 -108 -104 -97 -89 -82 -76 -69 -63 -55 -48 -41 -36 -29 -19 -11 -9 -11 -15 -20 -21 -22 -24 -26 -30 -33 -36 -38 -40 -42 -44 -47 -46 -45 -45 -48 -50 -53 -57 -60 -62 -61 -55 -49 -46 -46	10 8 5 4 6	-7584 -7932 -8732 -9508 -10724	-5084 -5400 -5592 -5412 -7060	7344 7200 7132 7012 7324
7452	101	600	0	23	314	2	94	0	0	0	-50 -55 -59 -63 -66 -68 -68 -69 -73 -78 -81 -82 -82 -79 -76 -73 -71 -68 -67 -64 -62 -56 -42 -14 31 97 184 278 336 318 205 -4 -288 -584 -805 -887 -821 -635 -396 -184 -35 62 114 132 133 127 116 101 90 84	9 16 23 27 26	-9044 -10920 -11052 -10560 -9832	-5000 -6168 -5548 -4972 -5000	6980 6788 7104 7920 8216
7453	101	608	0	23	314	2	94	0	0	1	78 69 62 58 59 62 66 72 75 78 82 85 91 98 104 109 116 125 138 161 185 202 212 221 231 242 249 251 246 237 226 210 189 166 141 115 89 62 37 13 -10 -31 -50 -67 -82 -92 -98 -101 -102 -103	21 12 4 -3 -9	-9356 -9180 -8812 -8576 -7884	-4904 -5008 -5224 -5168 -5192	7836 7672 7624 7668 7524
7454	101	608	0	23	314	2	94	0	0	0	-104 -104 -101 -99 -97 -95 -93 -91 -85 -76 -66 -56 -47 -39 -30 -20 -15 -17 -20 -23 -24 -25 -27 -32 -35 -36 -36 -38 -41 -44 -46 -45 -45 -44 -44 -43 -40 -37 -36 -38 -41 -42 -39 -35 -32 -33 -36 -40 -44 -48	-11 -12 -11 -9 -6	-7920 -8108 -8564 -9292 -10404	-5100 -5244 -5428 -5644 -5756	7492 7408 7348 7152 6904
7455	101	608	0	23	314	2	94	0	0	0	-50 -51 -52 -55 -57 -60 -60 -59 -56 -54 -54 -53 -50 -46 -40 -37 -36 -34 -30 -20 4 49 116 205 295 333 270 107 -123 -377 -606 -757 -798 -725 -553 -335 -142 -11 71 117 134 135 128 118 104 91 81 71 63 59	-3 1 3 4 2	-10472 -11064 -10760 -9320 -9492	-5632 -6180 -5852 -6040 -6280	6912 7268 8004 8676 8448
7456	103	588	0	23	314	2	94	0	0	1	55 50 46 42 39 39 41 41 43 45 47 50 54 58 67 82 102 121 135 146 157 169 179 186 189 186 180 171 156 137 116 94 70 45 17 -10 -36 -59 -79 -97 -113 -125 -134 -137 -136 -131 -128 -125 -122 -117	-3 -9 -14 -16 -15	-9308 -9212 -8428 -7872 -7644	-5996 -5492 -5224 -5344 -5456	7984 7996 7716 7708 7720
7457	103	588	0	23	314	2	94	0	0	0	-103 -96 -89 -83 -75 -65 -54 -45 -37 -32 -29 -26 -22 -18 -15 -13 -11 -10 -11 -12 -12 -9 -5 -4 -6 -11 -17 -21 -23 -26 -26 -24 -22 -23 -27 -29 -29 -26 -26 -26 -26 -25 -24 -24 -25 -23 -19 -15 -14 -19	-10 -4 2 7 12	-7852 -8332 -9360 -9536 -9768	-5744 -5804 -5880 -5956 -6372	7568 7416 7420 7484 7400
7458	103	588	0	23	314	2	94	0	0	0	-27 -34 -43 -51 -56 -58 -56 -53 -49 -45 -43 -41 -39 -37 -35 -29 -19 -8 -2 3 6 12 27 55 99 167 262 360 409 363 204 -54 -355 -621 -773 -776 -641 -415 -182 -12 87 135 153 156 152 140 123 109 99 93	16 18 16 10 1	-10328 -10796 -9776 -9700 -9600	-6392 -5724 -5244 -4892 -5064	7008 8272 8992 8588 7968
7459	103	616	0	23	314	2	94	0	0	1	89 83 80 77 75 76 78 80 82 83 85 88 90 91 94 100 106 114 124 137 151 165 177 189 200 209 214 216 213 206 197 185 169 153 137 116 89 59 28 -2 -28 -53 -76 -93 -102 -105 -106 -107 -110 -112	-10 -20 -28 -34 -36	-8952 -8408 -8176 -8256 -8516	-5464 -5432 -5240 -5080 -5180	7876 7648 7932 7628 7552
7460	103	616	0	23	314	2	94	0	0	0	-113 -111 -108 -104 -101 -98 -97 -94 -91 -87 -84 -81 -77 -73 -69 -64 -59 -52 -41 -32 -29 -30 -32 -34 -35 -36 -38 -38 -36 -33 -31 -31 -33 -35 -39 -46 -50 -53 -55 -55 -56 -56 -55 -53 -48 -45 -42 -37 -32 -31	-36 -35 -34 -31 -28	-8824 -9120 -9568 -9816 -10804	-5228 -5432 -5792 -5968 -6112	7436 7652 7656 7484 7568
7461	103	616	0	23	314	2	94	0	0	0	-30 -26 -20 -13 -8 -9 -13 -16 -18 -17 -16 -15 -14 -13 -14 -15 -16 -16 -14 -11 -7 -4 -2 0 6 11 12 8 5 8 22 51 104 186 275 317 268 109 -141 -430 -672 -792 -766 -613 -385 -166 -16 66 104 114	-25 -22 -21 -23 -27	-10440 -10208 -9492 -9588 -9488	-6276 -6056 -5996 -6228 -5616	7928 8812 9316 8784 8364
7462	103	628	0	23	314	2	94	0	0	1	110 104 94 83 75 70 67 63 56 53 53 53 54 56 60 63 65 69 74 84 97 106 112 116 119 125 136 148 159 171 186 198 207 210 210 206 198 186 171 152 130 107 85 62 36 11 -14 -36 -54 -68	-32 -36 -36 -33 -28	-9244 -8896 -8068 -7900 -8084	-5228 -5200 -5388 -5688 -5792	8072 7948 7804 7824 7752
7463	103	628	0	23	314	2	94	0	0	0	-80 -90 -96 -100 -103 -104 -104 -102 -99 -94 -88 -83 -79 -74 -64 -50 -41 -39 -40 -41 -39 -35 -30 -28 -28 -26 -24 -24 -22 -18 -14 -14 -17 -21 -23 -22 -19 -15 -13 -14 -13 -13 -14 -16 -18 -20 -21 -19 -19 -21	-23 -17 -12 -6 0	-8392 -8924 -9844 -9864 -10892	-5788 -5564 -5660 -6048 -5968	7548 7360 7336 7556 7308
7464	103	628	0	23	314	2	94	0	0	0	-25 -25 -22 -15 -7 1 5 6 6 9 16 25 32 35 31 23 13 5 1 3 12 16 12 4 -5 -11 -12 -11 -12 -13 -13 -13 -15 -20 -26 -29 -22 -8 12 50 116 204 279 290 199 1 -268 -538 -719 -756	6 11 12 11 8	-10792 -9732 -9880 -9612 -9504	-5684 -4912 -4780 -5052 -5240	7612 8632 8428 8176 8216
7465	103	628	0	23	314	2	94	0	0	0	-655 -455 -228 -51 48 95 112 113 108 101 89 75 69 69 68 67 65 61 56 51 49 48 50 50 50 53 59 64 68 75 87 100 113 125 138 153 168 182 192 200 204 203 199 191 179 164 149 132 114 95	5 0 -3 -6 -8	-8452 -8148 -8076 -7900 -8204	-5360 -5332 -5176 -5056 -5080	7828 7960 7760 7548 7440
7466	101	632	0	23	314	2	94	0	0	1	74 50 23 -3 -28 -51 -71 -88 -101 -110 -117 -122 -127 -131 -130 -127 -123 -118 -114 -110 -105 -96 -83 -73 -67 -68 -71 -71 -69 -67 -67 -67 -66 -65 -66 -67 -67 -66 -67 -68 -70 -67 -59 -51 -48 -52 -58 -64 -64 -59	-8 -5 0 7 13	-10080 -10420 -10224 -10208 -10408	-5188 -5360 -5676 -5780 -6416	7600 7672 7720 7764 8572
7467	101	632	0	23	314	2	94	0	0	0	-52 -48 -46 -45 -44 -42 -38 -35 -33 -32 -31 -28 -21 -14 -10 -11 -12 -15 -19 -25 -31 -36 -39 -38 -38 -39 -37 -33 -30 -29 -27 -27 -26 -24 -25 -25 -23 -18 -7 11 39 91 167 249 297 266 124 -120 -410 -654	17 14 4 -13 -33	-9776 -9564 -9036 -8928 -8900	-5808 -5764 -6408 -6180 -5452	9060 8976 8864 8244 8016
7468	101	632	0	23	314	2	94	0	0	0	-765 -725 -567 -351 -158 -32 35 68 79 81 82 77 68 62 61 60 56 51 49 51 52 53 57 65 69 67 65 63 63 66 72 78 83 89 99 114 130 147 161 173 180 186 189 187 179 169 156 141 127 112	-51 -66 -76 -81 -82	-8704 -8464 -8196 -8976 -9252	-4956 -5044 -5220 -5536 -5688	8232 8140 7852 7804 7636
7469	101	608	0	23	314	2	94	0	0	1	94 71 45 22 1 -16 -31 -47 -63 -76 -84 -88 -89 -88 -88 -89 -89 -85 -75 -66 -62 -62 -64 -65 -63 -59 -56 -53 -47 -39 -31 -22 -7 14 38 57 68 74 77 63 20 -48 -130 -202 -247 -265 -265 -253 -229 -201	-80 -74 -65 -56 -48	-9780 -9480 -10320 -11200 -10424	-5684 -5580 -6352 -6052 -5776	7816 7824 7860 7844 8232
7470	101	608	0	23	314	2	94	0	0	0	-174 -154 -138 -124 -111 -99 -87 -76 -67 -59 -53 -47 -40 -35 -29 -21 -13 -4 3 6 4 -2 -11 -19 -22 -16 -9 -8 -12 -15 -14 -10 -4 -1 -1 -1 -1 -2 0 0 -1 -1 12 36 75 137 216 283 293 217	-42 -41 -43 -47 -50	-9908 -9832 -9172 -9168 -8920	-5184 -4780 -4840 -4992 -5132	8460 8444 8004 7944 7776
7471	101	608	0	23	314	2	94	0	0	0	-193 -457 -670 -763 -723 -569 -351 -146 -4 81 125 140 142 140 136 128 117 111 111 115 115 112 108 101 95 95 99 101 101 104 110 117 125 133 141 147 152 160 175 193 207 219 230 238 246 252 252 247 239 230	-54 -54 -53 -49 -44	-8152 -8588 -9232 -9288 -9232	-5372 -5176 -5344 -5916 -5784	7780 7300 7180 7272 7416
7472	101	612	0	23	314	2	94	0	0	1	216 200 183 164 142 117 89 64 40 22 7 -5 -17 -25 -29 -33 -37 -40 -43 -48 -53 -53 -51 -49 -47 -45 -42 -35 -26 -19 -14 -10 -6 -2 1 3 7 12 15 15 13 14 18 22 24 23 20 18 17 17	-37 -30 -22 -15 -10	-9604 -10104 -10756 -9428 -9276	-6096 -6248 -6132 -6088 -6148	7220 7660 7880 8648 8748
7473	101	612	0	23	314	2	94	0	0	0	18 23 30 36 41 44 45 48 52 59 68 72 70 65 60 56 55 54 50 49 55 57 53 50 47 44 43 43 41 41 42 43 43 45 51 58 67 82 109 153 216 299 378 391 304 136 -82 -314 -513 -636	-6 -4 -2 1 4	-9048 -9268 -9460 -8400 -7964	-6372 -6176 -5896 -5572 -5724	8488 8264 7984 7808 7820
7474	101	612	0	23	314	2	94	0	0	0	-656 -565 -381 -168 6 118 187 224 234 231 225 215 202 192 189 192 194 192 189 185 182 182 183 183 182 183 191 203 210 212 212 211 214 223 236 250 264 276 286 297 307 314 317 314 305 294 282 269 254 234	7 11 16 25 39	-7740 -7944 -8908 -9104 -9452	-5984 -5932 -5896 -5812 -6080	7752 7584 7268 7540 7864
7475	101	588	0	23	314	2	94	0	0	1	211 185 158 133 112 93 77 66 59 53 49 48 51 57 65 74 86 105 125 139 147 147 144 139 135 132 129 127 124 120 115 112 113 113 112 110 109 108 109 109 110 112 113 111 109 107 104 102 102 102	57 77 96 110 118	-9488 -10440 -10552 -10196 -9768	-6160 -6228 -5888 -4912 -5084	7836 7936 8468 8704 8984
7476	99	588	0	23	314	2	94	0	0	0	103 104 105 102 101 100 100 105 112 115 114 109 103 96 90 86 88 96 100 98 93 87 83 83 83 80 78 79 81 83 83 82 83 88 105 137 186 259 349 423 423 319 125 -127 -388 -599 -702 -678 -537 -317	119 114 106 97 90	-9936 -9500 -8916 -8032 -7876	-5396 -6056 -6284 -6056 -5584	8300 8184 8216 8004 8076
7477	99	584	0	23	314	2	94	0	0	1	-98 64 163 220 247 253 251 245 236 225 216 210 202 193 188 187 186 186 186 187 187 186 187 193 198 200 201 201 204 210 219 228 238 250 263 275 284 290 293 293 288 280 269 255 237 215 190 163 134 108	86 84 82 80 79	-8196 -8620 -9264 -9796 -9796	-5064 -5128 -5452 -5436 -5716	7868 7720 7340 7728 7624
7478	99	584	0	23	314	2	94	0	0	0	85 63 42 25 9 -4 -13 -20 -23 -24 -23 -21 -19 -17 -16 -16 -19 -20 -13 -3 4 8 9 10 12 16 17 18 23 31 39 41 40 39 41 44 48 50 48 44 40 35 32 30 27 27 27 28 28 25	77 76 75 74 70	-10080 -10416 -10276 -10152 -9240	-5884 -6272 -6116 -6092 -6780	7308 7692 8228 8716 8848
7479	99	584	0	23	314	2	94	0	0	0	12 9 12 18 26 32 33 29 23 17 12 8 6 8 12 13 10 4 -3 -7 -9 -13 -17 -19 -19 -19 -20 -21 -20 -15 -2 24 68 140 238 333 359 273 85 -175 -457 -694 -826 -829 -706 -488 -251 -69 42 103	62 52 42 35 31	-9564 -9688 -9308 -8012 -7552	-6412 -5860 -5312 -5236 -5728	8500 8016 7996 7604 7604
7480	99	592	0	23	314	2	94	0	0	1	130 136 133 124 111 98 90 85 80 77 76 77 79 79 79 81 83 86 93 103 112 118 120 123 131 142 155 168 182 196 213 225 232 236 238 236 231 223 209 190 169 147 125 103 81 55 26 -2 -29 -56	31 32 33 34 35	-7532 -7940 -9104 -9760 -9920	-6136 -6044 -5600 -5748 -6136	7616 7420 7504 7276 7108
7481	99	592	0	23	314	2	94	0	0	0	-81 -100 -115 -125 -129 -129 -128 -126 -123 -120 -118 -115 -110 -98 -81 -65 -55 -52 -52 -50 -43 -36 -32 -30 -27 -22 -16 -8 -4 -3 -2 -1 0 1 1 -4 -11 -18 -24 -29 -31 -33 -37 -42 -47 -49 -50 -50 -50 -50	35 34 33 29 22	-10100 -11060 -9748 -9548 -9536	-6240 -5880 -5516 -4920 -5304	7076 7072 8360 8648 7956
7482	99	592	0	23	314	2	94	0	0	0	-52 -58 -66 -70 -70 -66 -62 -62 -68 -75 -82 -91 -101 -107 -107 -105 -104 -106 -108 -107 -102 -96 -96 -99 -102 -102 -100 -95 -89 -84 -75 -58 -29 14 81 173 263 295 224 51 -202 -485 -729 -868 -872 -748 -530 -294 -113 0	14 6 -1 -8 -13	-9548 -8660 -8192 -8036 -8136	-5300 -5648 -5624 -5536 -5480	7992 7844 7836 7696 7856
7483	99	604	0	23	314	2	94	0	0	1	62 91 99 99 94 85 76 69 64 56 47 39 34 30 28 33 40 41 38 34 30 30 33 37 41 46 54 65 78 92 106 119 132 143 152 158 159 156 151 141 126 109 89 66 39 13 -15 -43 -70 -96	-15 -15 -13 -9 -5	-8840 -9124 -9568 -9960 -9740	-5256 -5316 -5424 -5660 -5744	7392 7372 7388 7384 7300
7484	99	604	0	23	314	2	94	0	0	0	-120 -141 -158 -171 -180 -185 -189 -191 -191 -189 -186 -183 -180 -177 -172 -164 -156 -150 -145 -139 -131 -120 -108 -101 -98 -95 -95 -94 -92 -89 -87 -84 -83 -81 -80 -82 -84 -86 -89 -93 -95 -95 -96 -96 -97 -96 -95 -96 -96 -96	-1 1 1 -1 -5	-10496 -10036 -10040 -9172 -9828	-6020 -6076 -5836 -5944 -6348	7588 7972 8544 8884 8408
7485	99	604	0	23	314	2	94	0	0	0	-96 -95 -91 -87 -85 -84 -81 -78 -73 -67 -60 -55 -53 -55 -59 -63 -61 -54 -49 -46 -47 -51 -55 -56 -57 -58 -57 -54 -49 -46 -42 -38 -34 -32 -30 -18 9 53 122 214 298 316 235 52 -212 -506 -751 -877 -860 -708	-10 -14 -15 -15 -13	-9920 -9480 -8832 -7692 -7668	-5780 -5248 -4984 -5272 -5512	8016 7848 8052 7712 7856
7486	99	616	0	23	314	2	94	0	0	1	-231 -61 38 92 114 120 118 111 100 88 79 72 63 55 52 53 52 52 54 56 57 60 70 82 87 89 89 93 102 114 123 131 142 157 172 186 194 198 197 193 188 182 172 157 138 116 93 71 50 28	-10 -7 -4 -2 0	-8204 -8804 -9320 -9672 -9868	-5624 -5516 -5564 -6260 -6412	7760 7628 7528 7564 7492
7487	99	616	0	23	314	2	94	0	0	0	7 -12 -30 -46 -60 -72 -80 -86 -88 -89 -89 -90 -90 -91 -89 -85 -78 -67 -55 -47 -40 -35 -29 -23 -15 -11 -7 -4 -3 -1 -1 -4 -7 -8 -8 -8 -10 -13 -17 -21 -24 -25 -25 -25 -25 -27 -29 -30 -31 -32	0 -2 -5 -11 -19	-11104 -10584 -9840 -9784 -9552	-6180 -5564 -4748 -5084 -5184	7296 7552 8684 7992 7752
7488	99	616	0	23	314	2	94	0	0	0	-32 -33 -33 -33 -35 -37 -39 -40 -41 -42 -41 -38 -32 -28 -31 -37 -45 -52 -58 -62 -63 -63 -63 -59 -53 -51 -51 -52 -54 -54 -51 -46 -41 -41 -41 -36 -29 -14 13 55 116 198 282 316 259 102 -138 -420 -669 -807	-26 -32 -38 -41 -41	-9412 -8220 -7932 -8012 -8452	-5512 -5328 -5108 -4932 -4896	7856 7836 7712 7536 7368
7489	99	616	0	23	314	2	94	0	0	0	-807 -687 -486 -272 -106 -1 62 91 96 92 89 81 72 65 60 55 50 46 48 55 58 57 55 49 44 44 48 54 59 64 71 78 86 93 104 115 127 141 153 162 169 174 173 167 158 149 139 125 107 84	-38 -32 -25 -17 -9	-8800 -9592 -9700 -9724 -9924	-4716 -4900 -5356 -5512 -5400	7348 7152 7308 7152 6972
7490	99	612	0	23	314	2	94	0	0	1	60 35 11 -14 -38 -58 -73 -85 -95 -102 -108 -113 -116 -113 -106 -102 -99 -96 -97 -98 -96 -92 -85 -79 -74 -69 -64 -57 -49 -45 -44 -42 -39 -36 -34 -37 -39 -38 -35 -34 -34 -33 -35 -36 -36 -40 -46 -49 -49 -48	-3 1 1 -2 -7	-10768 -10024 -9260 -9232 -9548	-5764 -5824 -6052 -6244 -5468	7888 8668 8712 8592 7824
7491	99	612	0	23	314	2	94	0	0	0	-47 -49 -52 -50 -43 -34 -30 -31 -34 -30 -21 -14 -11 -13 -19 -26 -33 -39 -44 -46 -40 -35 -36 -44 -51 -56 -57 -52 -46 -45 -45 -43 -39 -37 -33 -25 -8 21 63 129 214 292 327 285 134 -120 -423 -678 -800 -768	-11 -14 -17 -19 -21	-9120 -8620 -8136 -8076 -8392	-5004 -4916 -5244 -5416 -5576	7792 7736 7860 7848 7472
7492	99	596	0	23	314	2	94	0	0	1	-610 -386 -184 -47 37 84 102 106 104 92 78 73 75 72 66 65 70 73 71 65 59 57 58 58 59 66 75 77 78 83 89 99 111 126 140 155 170 182 191 197 198 192 182 171 160 147 132 115 94 72	-25 -28 -29 -28 -27	-8896 -9196 -9460 -10100 -11880	-5352 -5140 -5136 -5612 -5912	6992 6996 7452 7172 7244
7493	99	596	0	23	314	2	94	0	0	0	28 6 -15 -34 -50 -62 -72 -79 -83 -87 -92 -96 -99 -102 -102 -98 -93 -87 -79 -72 -63 -52 -43 -37 -36 -37 -39 -38 -34 -32 -32 -30 -28 -28 -30 -31 -33 -35 -36 -35 -36 -38 -39 -41 -45 -48 -47 -43 -41 -39	-26 -27 -31 -36 -39	-10848 -10256 -9796 -9536 -9448	-5232 -5064 -4836 -5236 -5520	8324 8968 8352 8420 8060
7494	99	596	0	23	314	2	94	0	0	0	-34 -27 -22 -19 -18 -19 -17 -10 -3 -2 -6 -13 -18 -21 -23 -21 -15 -9 -9 -11 -17 -21 -23 -21 -19 -18 -16 -15 -16 -16 -14 -13 -12 -4 13 39 84 153 238 303 302 189 -35 -314 -556 -679 -658 -518 -316 -127	-42 -44 -43 -41 -37	-8920 -8504 -8288 -8520 -8792	-5204 -4924 -4764 -4764 -4816	8092 8092 7872 7840 7644
7495	99	592	0	23	314	2	94	0	0	1	1 68 96 102 99 95 86 74 63 57 55 53 53 54 53 49 45 45 47 49 50 52 56 61 66 70 76 85 93 104 117 128 139 152 162 167 166 163 157 151 142 131 116 101 87 73 57 40 23 8	-32 -24 -15 -6 2	-9148 -9536 -9776 -10088 -11016	-4792 -5180 -5360 -5428 -5880	7644 7368 7380 7240 7668
7496	99	592	0	23	314	2	94	0	0	0	-7 -18 -28 -37 -45 -49 -52 -56 -58 -60 -62 -62 -59 -58 -57 -57 -56 -53 -47 -40 -35 -33 -30 -25 -21 -17 -14 -12 -8 -5 -4 -4 -5 -6 -10 -15 -17 -16 -15 -14 -14 -16 -17 -16 -16 -18 -18 -16 -13 -12	8 11 9 6 4	-9800 -9360 -9340 -9668 -9476	-5624 -6004 -6128 -6064 -5456	8424 8464 8604 8068 7840
7497	99	592	0	23	314	2	94	0	0	0	-14 -20 -21 -16 -7 0 3 0 -6 -11 -16 -21 -23 -25 -26 -26 -25 -24 -24 -28 -30 -29 -24 -17 -9 -5 -7 -9 -11 -6 9 36 76 142 232 322 370 330 170 -99 -412 -665 -769 -711 -533 -307 -115 8 75 106	4 6 10 15 20	-8720 -8248 -7944 -8220 -9064	-4752 -5016 -5272 -5484 -5252	7672 7656 7652 7588 7384
7498	99	588	0	23	314	2	94	0	0	1	114 114 113 108 98 90 87 85 81 76 74 73 70 67 67 69 70 71 78 90 101 107 110 112 114 120 129 140 153 165 177 186 194 200 205 204 199 191 180 166 150 132 113 94 73 51 29 8 -11 -26	24 28 32 37 40	-9284 -9316 -9460 -11104 -10692	-5320 -5348 -5520 -5852 -5148	7284 7268 7336 6952 7728
7499	99	588	0	23	314	2	94	0	0	0	-39 -52 -64 -72 -76 -77 -77 -77 -76 -76 -76 -77 -78 -76 -68 -60 -56 -56 -57 -56 -50 -43 -39 -38 -37 -36 -36 -36 -37 -37 -38 -39 -40 -43 -45 -46 -46 -45 -42 -39 -37 -36 -35 -35 -32 -27 -23 -20 -21 -24	41 39 35 30 25	-9996 -9780 -9172 -8412 -7992	-4760 -4852 -5380 -5224 -5084	8132 7812 7576 7592 7656
7500	99	588	0	23	314	2	94	0	0	0	-32 -34 -33 -31 -30 -30 -30 -27 -23 -19 -17 -18 -19 -17 -13 -10 -9 -8 -3 9 28 53 86 137 211 303 370 352 230 14 -261 -533 -720 -773 -698 -526 -308 -114 18 97 141 153 152 149 141 127 116 113 113 111	21 18 16 15 15	-8156 -8700 -8884 -9180 -9660	-4960 -4984 -4904 -4932 -5308	7596 7164 6972 7044 7132
7501	99	564	0	23	314	2	94	0	0	1	108 106 107 108 109 110 110 109 110 113 116 119 123 128 139 153 165 176 187 196 205 217 229 240 248 252 253 249 241 229 214 195 175 150 123 96 71 46 22 0 -18 -34 -45 -52 -58 -62 -64 -66 -68 -69	16 17 18 18 14	-10028 -11260 -10772 -10068 -9492	-5396 -5856 -5796 -5888 -6116	6968 7300 7804 8100 8388
7502	99	564	0	23	314	2	94	0	0	0	-69 -69 -70 -70 -67 -64 -61 -58 -57 -55 -51 -48 -44 -39 -35 -33 -31 -30 -28 -27 -24 -18 -14 -15 -19 -25 -30 -32 -32 -32 -31 -30 -30 -30 -30 -28 -23 -18 -16 -16 -19 -23 -29 -35 -41 -47 -52 -53 -52 -49	9 3 -2 -4 -4	-9344 -9380 -8840 -8744 -8044	-5896 -5504 -5084 -5000 -5616	7936 7728 7840 7740 7672
7503	99	564	0	23	314	2	94	0	0	0	-48 -46 -44 -39 -33 -29 -26 -23 -19 -13 -9 -6 -1 14 41 81 149 243 338 395 370 232 -22 -338 -625 -788 -786 -632 -394 -168 -11 80 125 139 140 137 130 120 113 110 107 102 99 98 98 95 93 95 97 98	-2 1 3 5 7	-8156 -8512 -8948 -9128 -9112	-5696 -5528 -5424 -5476 -5812	7652 7440 7460 7456 7316
7504	99	572	0	23	314	2	94	0	0	1	99 101 104 109 117 125 134 143 154 164 174 184 196 209 219 224 226 225 220 214 206 194 186 178 165 147 127 107 88 70 51 32 17 6 -2 -11 -20 -28 -34 -39 -43 -46 -48 -50 -49 -45 -39 -33 -27 -24	9 12 13 13 11	-9688 -11568 -11108 -9808 -9484	-5964 -5752 -5476 -5048 -5356	7104 6812 7356 8336 7960
7505	99	572	0	23	314	2	94	0	0	0	-22 -22 -25 -29 -30 -28 -26 -25 -24 -24 -25 -26 -28 -31 -33 -35 -37 -36 -31 -27 -27 -29 -33 -36 -36 -37 -39 -41 -38 -32 -27 -27 -28 -31 -36 -40 -43 -44 -44 -43 -41 -39 -39 -37 -33 -31 -31 -32 -31 -31	6 0 -7 -13 -17	-9496 -9368 -8516 -8400 -8316	-5312 -5404 -5280 -5216 -5208	7960 7980 7664 7680 7596
7506	101	572	0	23	314	2	94	0	0	0	-30 -27 -24 -23 -20 -11 6 34 83 162 260 336 340 237 17 -284 -583 -783 -824 -716 -501 -260 -74 40 104 131 133 127 120 110 100 94 91 86 82 80 79 77 73 73 78 82 83 83 84 85 88 92 96 102	-20 -21 -21 -20 -18	-8300 -8732 -9072 -9556 -9584	-5304 -5096 -5220 -5364 -5792	7476 7160 7288 7252 7076
7507	101	568	0	23	314	2	94	0	0	1	121 131 142 154 167 182 194 201 205 206 205 199 186 172 154 135 115 94 75 53 26 -3 -31 -55 -71 -83 -93 -103 -110 -114 -115 -116 -114 -113 -112 -111 -107 -100 -93 -85 -79 -74 -71 -70 -68 -62 -53 -44 -39 -37	-16 -14 -13 -13 -14	-9800 -10416 -10416 -9692 -9432	-5608 -5888 -5964 -6124 -6124	6924 7324 7808 8032 8472
7508	101	568	0	23	314	2	94	0	0	0	-38 -37 -33 -30 -30 -30 -30 -29 -25 -23 -20 -15 -11 -4 2 4 0 -9 -15 -17 -15 -12 -8 -8 -13 -19 -23 -30 -38 -43 -46 -45 -42 -38 -37 -39 -39 -37 -35 -33 -30 -27 -26 -26 -27 -28 -27 -20 0 35	-18 -22 -25 -27 -26	-9420 -9264 -8840 -8468 -7920	-6064 -5468 -5332 -5312 -5684	7924 7640 7728 7696 7564
7509	101	568	0	23	314	2	94	0	0	0	89 169 266 338 329 218 19 -238 -501 -701 -780 -730 -570 -350 -144 -1 85 133 152 157 161 157 144 129 116 108 101 93 87 84 83 83 82 82 84 86 88 91 95 100 108 118 129 140 151 163 175 188 200 211	-25 -22 -20 -17 -15	-8328 -8680 -8968 -9104 -9612	-5796 -5728 -5664 -5660 -5780	7524 7480 7432 7404 7428
7510	101	572	0	23	314	2	94	0	0	1	220 226 228 225 218 208 196 182 166 146 125 104 83 60 38 17 -2 -18 -33 -47 -60 -68 -74 -76 -76 -75 -73 -69 -64 -57 -50 -44 -39 -37 -36 -33 -28 -24 -19 -11 -6 -3 1 4 6 7 8 8 6 6	-12 -9 -6 -5 -5	-10532 -10780 -10424 -9660 -9664	-5852 -5736 -5120 -4828 -4972	6992 7144 7684 8160 7952
7511	101	572	0	23	314	2	94	0	0	0	7 7 6 5 5 7 9 8 3 -2 -4 0 6 10 8 3 -2 -5 -10 -15 -18 -15 -12 -14 -19 -25 -30 -32 -31 -31 -31 -31 -31 -32 -32 -31 -30 -27 -17 6 43 99 179 273 336 317 195 -22 -300 -572	-6 -8 -10 -10 -10	-9620 -9348 -8612 -8396 -8196	-4944 -5216 -5084 -5028 -5016	7884 7656 7572 7524 7444
7512	101	572	0	23	314	2	94	0	0	0	-761 -819 -742 -550 -316 -119 9 82 118 130 131 127 117 107 100 98 99 99 98 95 91 86 81 78 75 73 73 75 75 72 73 79 88 98 108 118 131 146 160 172 183 193 201 204 203 198 191 182 168 148	-8 -7 -5 -2 0	-8400 -8644 -9192 -9668 -9768	-4960 -5048 -5252 -5504 -5556	7444 7060 7304 7112 6936
7513	101	564	0	23	314	2	94	0	0	1	121 94 70 43 13 -15 -40 -58 -70 -81 -94 -105 -108 -107 -104 -103 -106 -108 -104 -94 -84 -77 -68 -58 -50 -44 -42 -41 -36 -30 -24 -20 -16 -10 -4 -1 -1 0 2 4 5 7 12 12 9 6 4 5 9 11	2 4 4 1 -4	-10068 -10504 -9804 -9064 -9236	-5732 -6092 -6088 -5936 -6068	7036 8008 8616 8708 8688
7514	101	564	0	23	314	2	94	0	0	0	10 7 5 2 0 3 8 12 11 5 -5 -13 -17 -19 -19 -20 -21 -20 -16 -14 -13 -16 -22 -25 -26 -27 -28 -28 -26 -24 -23 -20 -10 14 53 113 200 294 341 300 150 -101 -405 -682 -843 -847 -706 -471 -231 -57	-11 -17 -22 -23 -22	-9352 -9304 -8864 -8428 -8104	-5536 -5292 -5248 -5532 -5772	8128 7940 7816 7920 7732
7515	101	576	0	23	314	2	94	0	0	1	103 127 130 124 113 101 93 90 87 83 78 73 71 69 67 65 65 67 68 69 71 73 79 91 102 108 114 120 126 136 147 157 169 181 190 194 193 188 181 172 162 149 132 112 92 70 47 24 2 -17	-20 -16 -12 -8 -2	-8580 -8816 -8932 -9248 -9832	-5656 -5500 -5540 -5592 -5944	7728 7608 7392 7656 7400
7516	103	576	0	23	314	2	94	0	0	0	-34 -48 -62 -73 -80 -86 -89 -92 -95 -96 -95 -93 -92 -89 -85 -81 -76 -71 -63 -53 -44 -39 -37 -36 -35 -33 -30 -27 -23 -17 -12 -10 -8 -9 -12 -15 -18 -19 -20 -21 -23 -24 -24 -24 -25 -27 -27 -26 -27 -27	5 11 18 24 28	-10764 -11032 -10656 -9616 -9428	-5868 -5680 -5016 -4792 -4960	7104 7328 8052 8224 8020
7517	103	576	0	23	314	2	94	0	0	0	-27 -27 -22 -14 -9 -6 -9 -14 -19 -25 -31 -35 -36 -36 -35 -37 -43 -49 -53 -53 -49 -45 -42 -41 -40 -39 -40 -41 -39 -28 -2 43 111 199 287 326 267 104 -142 -425 -676 -819 -827 -717 -523 -305 -129 -13 56 92	30 31 33 37 42	-9104 -9108 -8652 -8248 -8312	-5084 -5196 -5048 -5096 -4968	7900 7900 7736 7656 7640
7518	103	592	0	23	314	2	94	0	0	1	102 103 103 99 92 86 85 84 80 76 75 75 76 75 75 75 75 76 79 84 89 94 98 101 105 113 125 138 151 163 176 188 197 201 201 199 196 192 185 173 156 134 111 89 65 36 7 -23 -49 -71	49 56 63 69 73	-8472 -8864 -9772 -9628 -9944	-5044 -4992 -5408 -5492 -5444	7624 7568 7748 7716 7584
7519	103	592	0	23	314	2	94	0	0	0	-89 -105 -117 -122 -125 -124 -120 -115 -110 -106 -103 -101 -99 -97 -91 -82 -77 -74 -73 -75 -75 -70 -62 -55 -48 -41 -35 -31 -27 -23 -22 -22 -22 -22 -21 -21 -21 -19 -15 -12 -11 -9 -9 -10 -10 -9 -9 -8 -6 -6	76 77 77 73 68	-10008 -10268 -9916 -9496 -9584	-5432 -5872 -6108 -6752 -6728	7232 8388 8864 8900 8824
7520	103	592	0	23	314	2	94	0	0	0	-9 -13 -19 -26 -32 -36 -37 -36 -37 -40 -41 -40 -35 -28 -22 -21 -21 -22 -23 -23 -23 -18 -9 7 36 79 147 238 321 336 248 60 -200 -481 -714 -835 -824 -688 -468 -243 -73 35 98 129 139 139 132 120 109 105	61 55 49 44 40	-9532 -8964 -8444 -7796 -7664	-6100 -5064 -5132 -5388 -5612	8440 7852 7664 7724 7364
7521	103	576	0	23	314	2	94	0	0	1	103 99 93 89 86 82 78 74 74 75 77 79 81 84 89 95 108 123 133 141 147 153 164 178 192 205 215 221 222 219 213 204 189 171 149 126 100 74 47 21 -4 -27 -48 -66 -81 -93 -101 -107 -111 -113	36 33 29 27 27	-8316 -8864 -9088 -9260 -10060	-5756 -5848 -5840 -5952 -6076	7352 7208 7036 7276 7144
7522	103	576	0	23	314	2	94	0	0	0	-112 -111 -110 -109 -107 -104 -97 -89 -82 -75 -67 -59 -50 -43 -35 -28 -25 -22 -19 -17 -12 -1 13 20 22 19 16 15 15 14 11 9 7 6 6 4 4 5 5 4 3 1 -2 4 24 45 48 37 17 -3	28 28 26 23 17	-10948 -11168 -10620 -9628 -9264	-6016 -5672 -5224 -4792 -4984	7112 7728 7940 8292 7732
7523	103	576	0	23	314	2	94	0	0	0	-15 -21 -27 -31 -31 -28 -30 -35 -38 -37 -35 -34 -34 -35 -35 -33 -28 -20 -15 -13 -4 21 65 134 228 324 364 299 129 -117 -393 -643 -811 -862 -788 -602 -364 -156 -17 65 107 120 120 116 106 95 86 80 76 71	10 3 -2 -5 -7	-9104 -8932 -8680 -8500 -8356	-5088 -5320 -5168 -4884 -4892	7820 7720 7640 7632 7500
7524	103	592	0	23	314	2	94	0	0	1	69 68 66 65 65 68 72 76 80 85 91 97 102 109 119 129 140 152 165 180 195 210 224 239 250 259 277 290 280 254 217 176 142 116 88 53 19 -9 -35 -61 -85 -102 -115 -125 -131 -134 -136 -138 -137 -134	-7 -6 -4 -2 0	-8604 -8848 -9648 -9824 -10068	-4860 -4744 -5184 -5420 -5340	7480 7356 7412 7316 7280
7525	103	592	0	23	314	2	94	0	0	0	-130 -125 -122 -117 -111 -106 -101 -93 -83 -75 -68 -62 -56 -50 -43 -35 -29 -24 -17 -11 -11 -14 -18 -24 -28 -31 -35 -37 -38 -39 -41 -42 -42 -43 -47 -50 -53 -55 -52 -47 -44 -39 -34 -33 -34 -32 -27 -21 -16 -16	2 3 3 1 -1	-10192 -10672 -10060 -9392 -9148	-5528 -5724 -5492 -5484 -5932	7132 7460 8116 8488 8420
7526	104	592	0	23	314	2	94	0	0	0	-20 -26 -33 -39 -45 -49 -51 -49 -47 -46 -47 -49 -49 -43 -34 -28 -27 -30 -33 -35 -35 -33 -29 -14 20 72 150 252 335 337 229 22 -249 -525 -741 -843 -812 -657 -424 -193 -27 75 130 151 153 150 141 129 121 117	-6 -11 -15 -19 -23	-9224 -9204 -8944 -8416 -7984	-6156 -5216 -5008 -5224 -5504	8124 7696 7660 7624 7716
7527	104	608	0	23	314	2	94	0	0	1	113 108 105 103 103 105 103 100 98 97 97 98 102 107 113 120 128 138 150 166 186 203 217 228 238 247 255 259 258 254 248 239 228 212 189 161 130 99 69 40 13 -14 -39 -60 -76 -88 -98 -104 -106 -108	-26 -27 -29 -29 -27	-8264 -8768 -9128 -9448 -9604	-5860 -5728 -5700 -5840 -5784	7468 7336 7508 7368 7200
7528	104	608	0	23	313	2	94	0	0	0	-109 -109 -108 -107 -102 -96 -91 -85 -77 -69 -61 -51 -41 -32 -21 -8 -1 1 0 -2 -2 0 2 2 2 3 4 3 1 1 1 -1 -5 -10 -16 -20 -23 -24 -25 -25 -25 -27 -28 -28 -28 -25 -19 -12 -5 -4	-24 -20 -17 -16 -17	-10644 -10984 -10484 -9856 -9592	-5656 -5528 -5416 -4988 -4740	7020 7264 8468 8376 7852
7529	104	608	0	23	313	2	94	0	0	0	-14 -15 -14 -10 -8 -12 -18 -24 -28 -31 -33 -34 -34 -36 -39 -41 -44 -46 -46 -43 -36 -31 -32 -35 -40 -42 -40 -35 -21 6 50 118 211 305 345 282 115 -127 -400 -647 -806 -839 -743 -539 -294 -94 34 110 149 162	-20 -24 -27 -29 -29	-9380 -8948 -8484 -8208 -8356	-4968 -5608 -5844 -5344 -4944	7864 7984 8056 7756 7664
7530	104	628	0	23	313	2	94	0	0	1	164 160 150 136 127 119 112 104 97 95 93 92 92 93 94 99 106 107 104 100 97 98 104 112 120 129 143 158 174 190 204 215 220 222 222 219 212 201 185 167 149 128 104 77 49 21 -4 -28 -50 -71	-26 -22 -16 -9 -3	-8552 -8912 -9244 -9776 -9972	-4888 -4860 -5144 -5520 -5496	7420 7296 7216 7148 6972
7531	104	628	0	23	313	2	94	0	0	0	-88 -100 -109 -114 -117 -119 -119 -117 -114 -106 -98 -90 -84 -80 -78 -75 -72 -67 -62 -55 -49 -41 -32 -26 -22 -22 -25 -28 -28 -27 -26 -24 -22 -22 -22 -22 -21 -20 -20 -22 -23 -24 -22 -19 -17 -17 -17 -15 -12 -7	1 4 4 1 -4	-10024 -10680 -9652 -9328 -9684	-5548 -5936 -5520 -5780 -6236	6932 7460 8424 8616 8516
7532	104	628	0	23	313	2	94	0	0	0	-2 3 8 11 13 13 10 8 9 13 19 23 23 17 12 9 8 9 10 8 4 -2 -10 -16 -19 -23 -26 -27 -27 -26 -27 -29 -31 -31 -24 -8 21 63 129 220 313 359 314 162 -89 -393 -665 -819 -817 -679	-9 -14 -15 -13 -8	-9848 -9396 -8528 -7820 -7304	-6024 -5012 -5204 -5416 -5452	8128 7616 7464 7492 7588
7533	104	628	0	23	313	2	94	0	0	1	-452 -215 -36 73 132 156 156 148 138 126 115 110 111 109 103 100 100 100 98 95 91 88 86 87 88 87 83 79 78 80 84 91 102 115 129 144 158 169 178 183 184 182 177 167 155 142 128 110 89 66	-2 6 15 24 32	-7412 -8856 -9452 -9592 -9756	-5672 -5548 -5484 -5764 -5884	7492 7084 6912 7060 7176
