1946	0	704	0	0	0	1	0	0	0	0	538 513 492 473 452 428 406 386 368 358 357 353 341 327 314 308 306 301 294 286 280 284 292 291 285 278 271 272 274 274 273 275 266 249 235 234 244 252 254 251 246 244 245 245 243 240 236 231 228 226	-4216 -3908 -3601 -3298 -3001	-9448 -9444 -9392 -9440 -9412	-6788 -6816 -6820 -6804 -6796	7356 7440 7400 7380 7340
1947	0	704	0	0	0	1	0	0	0	0	216 202 192 193 202 205 203 196 184 178 179 185 198 216 223 216 203 194 192 190 180 170 166 171 181 194 201 197 195 199 196 188 183 180 184 194 200 195 179 159 143 138 135 130 127 127 119 106 104 109	-2714 -2441 -2183 -1944 -1724	-9404 -9436 -9428 -9408 -9440	-6828 -6820 -6836 -6828 -6792	7336 7352 7360 7388 7352
1948	0	704	0	0	0	1	0	0	0	0	113 116 118 119 125 129 124 110 99 105 132 166 206 266 347 413 427 368 235 73 -74 -190 -255 -264 -224 -150 -58 20 71 101 119 123 111 97 92 88 81 79 81 84 85 83 77 70 72 86 98 101 101 96	-1524 -1344 -1182 -1037 -908	-9448 -9432 -9400 -9380 -9428	-6840 -6832 -6840 -6808 -6804	7388 7348 7408 7432 7400
1949	81	740	0	0	0	1	0	0	0	1	86 79 80 84 88 93 97 102 106 109 106 104 111 124 140 159 176 181 178 178 177 177 177 167 150 137 128 117 106 91 75 62 50 34 15 -4 -18 -30 -48 -76 -106 -129 -144 -154 -164 -176 -184 -184 -177 -170	-795 -698 -617 -552 -504	-9464 -9420 -9408 -9396 -9416	-6828 -6820 -6804 -6816 -6828	7364 7380 7380 7340 7452
1950	81	740	0	22	0	1	0	0	0	0	-171 -177 -183 -187 -191 -190 -188 -195 -203 -201 -196 -194 -188 -185 -192 -194 -191 -191 -193 -196 -203 -208 -209 -210 -209 -211 -215 -222 -231 -239 -244 -248 -250 -250 -248 -247 -244 -243 -251 -257 -263 -270 -279 -285 -287 -292 -298 -306 -320 -333	-470 -452 -449 -460 -487	-9408 -9416 -9416 -9424 -9404	-6824 -6848 -6812 -6844 -6848	7424 7340 7420 7396 7384
1951	81	740	0	22	313	1	0	0	0	0	-331 -324 -326 -338 -356 -369 -369 -357 -343 -346 -361 -374 -380 -378 -368 -362 -373 -392 -400 -396 -385 -377 -375 -384 -400 -413 -424 -435 -446 -455 -467 -479 -487 -492 -500 -511 -523 -533 -545 -555 -560 -558 -554 -553 -558 -569 -589 -610 -620 -620	-530 -590 -669 -765 -879	-9412 -9412 -9396 -9412 -9432	-6820 -6804 -6812 -6828 -6788	7352 7380 7360 7352 7348
1952	81	740	0	22	313	1	0	0	0	0	-612 -589 -557 -518 -463 -407 -378 -399 -489 -626 -762 -877 -953 -980 -976 -947 -890 -825 -775 -744 -727 -727 -737 -753 -765 -770 -771 -767 -757 -756 -767 -776 -779 -776 -768 -765 -769 -776 -779 -776 -769 -764 -763 -769 -779 -788 -786 -778 -768 -762	-1008 -1150 -1302 -1461 -1625	-9428 -9432 -9392 -9428 -9424	-6804 -6780 -6776 -6780 -6816	7392 7320 7352 7328 7356
1953	81	760	0	22	313	1	0	0	0	1	-759 -752 -742 -735 -730 -718 -700 -684 -670 -660 -652 -649 -654 -662 -673 -680 -683 -689 -702 -711 -718 -724 -722 -724 -738 -750 -757 -767 -778 -788 -796 -801 -808 -821 -835 -842 -839 -827 -814 -805 -799 -794 -792 -792 -786 -772 -755 -745 -744 -743	-1792 -1959 -2126 -2289 -2448	-9444 -9404 -9432 -9424 -9460	-6768 -6768 -6788 -6764 -6772	7312 7380 7320 7336 7344
1954	81	760	0	22	313	1	0	0	0	0	-735 -727 -721 -715 -712 -701 -683 -662 -649 -647 -648 -646 -639 -632 -630 -630 -625 -614 -597 -584 -582 -580 -576 -565 -551 -545 -542 -532 -518 -508 -501 -495 -490 -479 -471 -474 -480 -476 -460 -443 -430 -424 -422 -417 -404 -391 -384 -378 -369 -357	-2600 -2745 -2882 -3011 -3133	-9436 -9416 -9432 -9440 -9392	-6788 -6796 -6772 -6796 -6760	7320 7308 7400 7328 7344
1955	81	760	0	22	313	1	91	0	0	0	-342 -327 -314 -305 -303 -301 -293 -287 -281 -275 -270 -260 -248 -239 -234 -232 -226 -215 -211 -214 -215 -212 -209 -210 -208 -202 -194 -185 -180 -180 -177 -169 -160 -148 -135 -128 -130 -130 -109 -67 -17 32 84 139 184 188 128 29 -72 -153	-3247 -3355 -3457 -3552 -3642	-9448 -9448 -9392 -9424 -9400	-6800 -6796 -6756 -6796 -6772	7332 7320 7332 7320 7256
1956	81	756	0	22	313	1	91	0	0	0	-209 -241 -251 -233 -180 -112 -57 -22 -1 7 7 4 4 10 16 25 33 36 36 41 48 52 53 56 64 76 82 83 83 88 96 103 106 105 107 113 122 135 151 162 166 174 185 195 209 223 229 231 235 243	-3726 -3805 -3879 -3949 -4016	-9416 -9392 -9424 -9420 -9412	-6768 -6748 -6752 -6788 -6768	7388 7384 7304 7324 7312
1957	81	756	0	22	313	1	91	0	0	1	247 243 237 229 217 213 222 229 218 197 177 160 152 149 142 133 133 135 129 105 73 52 51 60 63 54 47 45 46 51 54 53 51 56 64 68 67 66 67 71 73 71 65 64 73 85 91 85 77 75	-4080 -4142 -4201 -4258 -4311	-9424 -9432 -9424 -9416 -9440	-6732 -6744 -6820 -6760 -6760	7288 7288 7340 7392 7324
1958	81	756	0	22	313	1	91	0	0	0	79 86 96 100 96 90 84 80 79 81 77 72 72 78 86 92 95 97 99 101 101 90 74 65 67 76 81 81 79 76 80 93 98 96 97 100 99 99 94 81 69 66 70 79 90 99 103 108 112 111	-4360 -4404 -4444 -4480 -4511	-9472 -9436 -9460 -9404 -9396	-6764 -6804 -6752 -6784 -6784	7352 7352 7320 7408 7396
1959	81	756	0	22	313	1	91	0	0	0	109 114 125 125 118 112 102 93 94 94 91 89 90 84 73 68 70 74 76 79 77 67 61 61 60 60 63 67 66 65 72 88 113 145 185 244 321 380 380 299 162 29 -70 -133 -168 -177 -150 -87 -11 41	-4539 -4562 -4582 -4598 -4610	-9420 -9436 -9436 -9424 -9472	-6768 -6780 -6784 -6764 -6772	7328 7328 7360 7372 7324
1960	81	772	0	22	313	1	91	0	0	1	66 79 89 100 108 104 87 76 84 101 112 114 111 104 98 101 105 105 108 110 104 101 104 107 110 113 117 126 137 145 150 153 153 158 166 174 181 186 194 204 212 221 223 222 224 225 222 213 206 200	-4619 -4624 -4627 -4628 -4627	-9460 -9436 -9440 -9440 -9432	-6756 -6784 -6744 -6780 -6748	7384 7344 7360 7316 7392
1961	81	772	0	22	313	1	91	0	0	0	191 178 156 135 125 118 108 87 59 35 21 15 11 5 -6 -23 -40 -51 -56 -53 -46 -40 -40 -41 -39 -37 -44 -55 -59 -54 -42 -30 -29 -35 -39 -42 -42 -38 -33 -29 -26 -26 -31 -42 -49 -45 -42 -42 -41 -35	-4624 -4620 -4615 -4607 -4596	-9448 -9428 -9460 -9412 -9424	-6768 -6772 -6792 -6780 -6808	7392 7416 7388 7356 7364
1962	81	772	0	22	313	1	91	0	0	0	-24 -15 -21 -38 -54 -58 -53 -46 -48 -56 -61 -61 -63 -57 -47 -42 -42 -46 -52 -56 -57 -56 -56 -55 -49 -46 -50 -51 -42 -28 -18 -21 -40 -62 -67 -59 -48 -46 -52 -58 -56 -47 -40 -41 -39 -32 -21 -6 -1 -9	-4582 -4565 -4543 -4517 -4486	-9464 -9456 -9436 -9432 -9436	-6792 -6792 -6812 -6776 -6744	7388 7364 7380 7324 7340
1963	81	772	0	22	313	1	91	0	0	0	-19 -25 -23 -22 -24 -22 -23 -28 -31 -29 -32 -40 -47 -52 -54 -48 -41 -44 -54 -65 -73 -73 -68 -67 -66 -65 -65 -62 -53 -49 -54 -51 -35 -8 34 98 182 254 279 229 94 -68 -204 -298 -344 -348 -327 -273 -186 -103	-4451 -4412 -4369 -4322 -4271	-9440 -9420 -9444 -9424 -9464	-6796 -6780 -6796 -6776 -6800	7356 7376 7388 7384 7396
1964	81	800	0	22	313	1	91	0	0	1	-54 -31 -30 -36 -27 -13 -9 -11 -14 -20 -23 -24 -24 -19 -10 -5 -5 -7 -10 -11 -3 12 26 33 26 15 12 16 16 11 9 23 50 72 83 88 89 96 108 112 113 121 127 133 141 141 132 126 123 119	-4217 -4159 -4099 -4038 -3976	-9492 -9440 -9416 -9452 -9460	-6752 -6800 -6780 -6792 -6768	7356 7408 7356 7360 7368
1965	81	800	0	22	313	1	91	0	0	0	95 83 74 61 47 24 -2 -25 -46 -61 -67 -75 -89 -107 -124 -132 -130 -126 -128 -135 -141 -145 -152 -159 -163 -159 -146 -135 -129 -126 -122 -120 -121 -124 -129 -126 -110 -98 -100 -109 -118 -126 -128 -124 -117 -103 -96 -103 -110 -113	-3914 -3851 -3787 -3723 -3657	-9444 -9444 -9464 -9452 -9448	-6808 -6788 -6804 -6764 -6768	7400 7408 7420 7408 7396
1966	81	800	0	22	313	1	91	0	0	0	-112 -107 -99 -95 -98 -102 -99 -94 -92 -92 -96 -96 -90 -84 -81 -76 -69 -66 -68 -75 -82 -73 -60 -57 -58 -53 -53 -58 -62 -63 -59 -53 -47 -42 -36 -33 -34 -33 -27 -21 -13 -4 -4 -5 -4 -2 2 10 14 14	-3589 -3519 -3448 -3375 -3300	-9476 -9448 -9440 -9444 -9472	-6768 -6756 -6780 -6772 -6736	7372 7412 7392 7352 7396
1967	81	800	0	22	313	1	91	0	0	0	15 20 31 46 53 55 61 70 77 79 81 83 83 79 74 67 63 65 72 77 81 91 100 103 107 111 113 120 127 128 128 128 127 131 141 154 169 190 226 285 369 459 515 514 447 320 179 56 -40 -93	-3223 -3143 -3061 -2974 -2881	-9456 -9444 -9460 -9460 -9464	-6756 -6756 -6792 -6776 -6756	7360 7416 7352 7388 7348
1968	81	824	0	22	313	1	91	0	0	0	-100 -59 26 132 222 277 301 307 308 313 320 322 321 324 331 341 354 366 377 379 374 379 397 414 421 420 417 416 419 429 437 442 450 461 472 484 499 516 529 536 544 559 582 600 607 607 604 602 611 625	-2782 -2673 -2554 -2423 -2278	-9440 -9460 -9448 -9432 -9436	-6756 -6756 -6780 -6756 -6760	7316 7344 7404 7376 7364
1969	81	824	0	22	313	1	91	0	0	1	632 632 631 630 626 617 606 597 590 580 561 534 508 488 478 475 464 444 429 420 410 407 405 395 380 371 368 368 371 377 383 387 389 390 388 385 387 392 393 390 389 394 397 397 396 394 390 396 406 409	-2120 -1947 -1760 -1556 -1337	-9428 -9408 -9456 -9452 -9448	-6772 -6808 -6736 -6764 -6728	7408 7376 7348 7372 7348
1970	81	824	0	22	313	1	91	0	0	0	408 405 401 397 392 389 389 388 384 380 381 392 404 405 394 385 386 396 399 388 377 371 369 377 385 384 378 371 360 351 353 358 362 363 360 354 347 340 336 334 336 341 343 335 322 312 304 299 299 296	-1101 -851 -586 -310 -23	-9484 -9452 -9480 -9452 -9416	-6776 -6776 -6760 -6768 -6756	7352 7380 7336 7364 7376
1971	81	824	0	22	312	1	91	0	0	0	288 285 286 286 284 283 281 274 272 283 295 294 280 265 255 254 257 252 244 240 242 242 237 227 212 200 192 187 187 188 183 174 165 157 155 154 155 160 160 157 154 150 145 141 153 190 242 300 363 419	271 571 874 1178 1479	-9440 -9448 -9432 -9452 -9432	-6812 -6768 -6776 -6784 -6796	7360 7388 7328 7372 7372
1972	81	828	0	22	312	1	91	0	0	0	437 393 282 137 -2 -105 -157 -174 -163 -112 -32 43 90 107 109 111 120 137 146 145 139 135 140 145 141 131 124 123 129 136 135 126 119 119 121 123 134 152 164 167 162 152 146 154 169 182 190 197 204 209	1776 2067 2348 2618 2875	-9420 -9424 -9484 -9444 -9424	-6760 -6788 -6788 -6800 -6788	7392 7372 7396 7380 7368
1973	81	828	0	22	312	1	91	0	0	1	218 231 238 235 234 243 258 267 264 256 251 247 239 221 192 164 149 146 137 118 97 83 74 59 33 11 -2 -9 -9 -9 -17 -23 -22 -26 -35 -36 -31 -30 -34 -34 -27 -16 -8 -10 -19 -24 -17 -2 3 -1	3118 3346 3559 3757 3941	-9416 -9420 -9456 -9408 -9452	-6756 -6800 -6804 -6788 -6804	7368 7380 7384 7340 7368
1974	81	828	0	22	312	1	91	0	0	0	-3 -7 -11 -12 -18 -25 -23 -11 0 0 -2 0 1 -1 -2 -1 2 6 10 13 15 15 10 0 -7 -6 4 16 24 26 29 31 24 9 -1 2 17 32 35 28 25 31 40 46 43 36 33 39 46 42	4110 4266 4411 4544 4667	-9468 -9436 -9444 -9436 -9436	-6772 -6776 -6788 -6788 -6748	7368 7352 7352 7384 7368
1975	81	828	0	22	312	1	91	0	0	0	35 32 28 24 28 39 53 65 77 82 76 71 73 71 66 67 66 64 60 56 51 44 37 35 33 31 30 36 47 49 41 30 21 16 19 26 29 30 33 32 29 35 55 89 133 187 250 302 316 275	4781 4888 4986 5076 5159	-9436 -9444 -9460 -9464 -9476	-6764 -6760 -6720 -6740 -6744	7352 7352 7344 7400 7352
1976	81	792	0	22	312	1	91	0	0	0	184 85 -1 -78 -137 -177 -188 -156 -89 -20 23 39 43 45 49 50 49 44 38 40 49 52 53 61 66 60 50 46 52 60 62 52 36 34 51 66 64 57 56 62 71 80 92 104 111 114 112 107 107 110	5233 5298 5354 5401 5437	-9480 -9460 -9488 -9464 -9488	-6704 -6724 -6732 -6760 -6728	7336 7344 7332 7376 7324
1977	81	792	0	22	312	1	91	0	0	1	111 113 122 134 140 140 142 138 128 118 108 97 88 75 53 30 14 2 -6 -11 -21 -37 -53 -66 -76 -81 -84 -89 -93 -99 -109 -118 -130 -137 -131 -116 -103 -102 -112 -123 -129 -124 -111 -109 -119 -123 -121 -123 -125 -122	5461 5472 5469 5452 5422	-9460 -9476 -9472 -9464 -9436	-6688 -6740 -6748 -6752 -6748	7348 7344 7308 7328 7360
1978	81	792	0	22	312	1	91	0	0	0	-120 -116 -110 -107 -109 -110 -113 -115 -116 -118 -124 -132 -133 -128 -116 -102 -103 -117 -129 -137 -142 -144 -140 -126 -111 -111 -122 -132 -134 -126 -120 -122 -127 -133 -136 -132 -129 -129 -131 -134 -134 -128 -118 -112 -114 -116 -118 -121 -123 -131	5378 5322 5252 5172 5079	-9456 -9476 -9480 -9476 -9524	-6728 -6760 -6700 -6692 -6688	7408 7384 7348 7380 7356
1979	79	792	0	22	312	1	91	0	0	0	-136 -129 -113 -93 -80 -78 -83 -90 -94 -97 -107 -121 -135 -147 -158 -169 -172 -159 -139 -126 -125 -128 -134 -143 -153 -162 -167 -161 -151 -148 -151 -154 -147 -124 -86 -34 34 106 156 152 79 -44 -167 -273 -350 -391 -402 -380 -315 -231	4977 4864 4742 4612 4473	-9524 -9536 -9536 -9568 -9604	-6688 -6700 -6656 -6640 -6600	7400 7428 7396 7396 7348
1980	79	764	0	22	312	1	91	0	0	1	-168 -133 -118 -121 -129 -133 -133 -128 -126 -132 -137 -137 -134 -132 -135 -136 -131 -119 -106 -105 -119 -136 -139 -128 -119 -116 -116 -113 -107 -93 -74 -69 -74 -74 -72 -71 -65 -54 -47 -44 -41 -29 -9 10 23 25 18 6 -6 -14	4326 4173 4012 3844 3669	-9616 -9656 -9692 -9708 -9708	-6552 -6520 -6544 -6504 -6480	7528 7500 7484 7492 7536
1981	79	764	0	22	312	1	91	0	0	0	-24 -38 -50 -66 -88 -106 -115 -117 -123 -141 -164 -185 -199 -207 -213 -225 -239 -251 -257 -259 -264 -273 -281 -277 -266 -258 -257 -261 -268 -268 -262 -254 -253 -254 -248 -247 -253 -262 -267 -265 -257 -245 -237 -238 -243 -248 -258 -267 -268 -260	3489 3305 3118 2931 2744	-9660 -9640 -9716 -9764 -9728	-6468 -6472 -6436 -6472 -6456	7532 7504 7480 7516 7584
1982	79	764	0	22	312	1	91	0	0	0	-252 -249 -255 -266 -273 -273 -267 -257 -244 -234 -231 -237 -246 -255 -258 -260 -265 -265 -260 -251 -243 -240 -244 -248 -247 -248 -252 -252 -246 -245 -251 -262 -269 -260 -239 -225 -221 -222 -222 -219 -212 -206 -205 -203 -205 -212 -218 -222 -221 -214	2560 2380 2204 2034 1870	-9668 -9724 -9732 -9748 -9740	-6392 -6384 -6416 -6400 -6396	7596 7556 7576 7608 7604
1983	79	764	0	22	312	1	91	0	0	0	-210 -208 -207 -212 -218 -221 -223 -228 -232 -235 -235 -233 -235 -239 -240 -239 -238 -237 -238 -243 -248 -248 -239 -215 -168 -111 -46 29 96 119 76 -32 -171 -304 -412 -477 -502 -489 -433 -350 -273 -216 -180 -164 -163 -167 -168 -165 -161 -158	1713 1562 1417 1279 1148	-9728 -9740 -9680 -9684 -9728	-6412 -6424 -6424 -6432 -6444	7640 7676 7588 7592 7628
1984	79	760	0	22	312	1	91	0	0	1	-153 -147 -147 -151 -155 -154 -144 -130 -116 -115 -125 -136 -140 -136 -129 -122 -114 -101 -92 -90 -91 -93 -93 -87 -79 -66 -46 -22 -2 11 18 23 29 35 39 44 48 49 51 49 43 35 21 0 -25 -46 -48 -41 -46 -65	1025 912 812 726 656	-9716 -9740 -9776 -9728 -9600	-6488 -6552 -6576 -6576 -6612	7628 7636 7592 7636 7688
1985	79	760	0	22	312	1	91	0	0	0	-94 -125 -146 -159 -173 -190 -203 -210 -213 -217 -220 -218 -215 -214 -213 -209 -205 -200 -196 -192 -186 -182 -180 -178 -176 -172 -167 -162 -158 -156 -154 -151 -148 -145 -141 -138 -136 -133 -129 -125 -121 -118 -115 -112 -110 -108 -106 -104 -101 -99	603 567 547 545 557	-9516 -9548 -9568 -9512 -9396	-6708 -6744 -6800 -6756 -6860	7624 7648 7644 7656 7752
1986	79	760	0	22	312	1	91	0	0	0	-91 -86 -82 -78 -73 -70 -69 -71 -71 -69 -60 -51 -45 -41 -35 -26 -18 -13 -12 -14 -14 -11 -5 3 13 27 40 48 53 57 60 65 69 71 69 71 75 77 78 72 63 56 52 52 57 65 74 79 80 76	617 661 711 768 832	-9428 -9464 -9368 -9348 -9336	-6880 -6916 -7104 -7120 -7068	7768 7820 7864 7912 7924
1987	79	760	0	22	312	1	91	0	0	0	71 70 72 76 81 84 85 85 86 88 96 117 153 203 269 345 402 409 347 223 85 -38 -130 -181 -194 -167 -98 -10 63 108 137 152 160 164 164 161 157 156 159 164 167 163 159 158 160 166 171 172 170 169	905 988 1081 1179 1281	-9328 -9332 -9360 -9280 -9276	-7156 -7152 -7192 -7204 -7208	7920 7924 7972 7952 7988
1988	79	756	0	22	312	1	91	0	0	1	170 171 172 177 184 190 195 199 202 207 214 221 227 233 241 250 261 269 276 281 286 291 294 296 297 295 290 282 269 255 244 233 220 204 187 167 147 128 108 89 73 60 47 35 26 20 16 12 10 12	1380 1471 1551 1615 1664	-9264 -9224 -9224 -9228 -9232	-7248 -7264 -7240 -7168 -7188	7900 7944 7940 7892 7920
1989	78	756	0	22	312	1	91	0	0	0	11 5 -1 -5 -6 -2 3 4 4 4 4 5 6 6 6 8 9 11 13 14 13 14 15 13 7 5 9 13 16 19 22 25 21 10 0 -6 -4 4 9 9 7 9 15 24 29 27 21 14 11 10	1699 1723 1740 1754 1769	-9252 -9268 -9216 -9184 -9200	-7208 -7152 -7212 -7276 -7320	7944 7900 7916 7920 7864
1990	78	756	0	17	312	1	91	0	0	0	10 11 16 24 30 28 22 18 23 33 43 50 54 55 54 52 50 48 49 57 65 60 49 43 38 33 31 28 19 15 17 16 13 15 24 35 37 31 26 25 28 36 43 46 57 83 122 169 223 282	1786 1804 1822 1837 1847	-9252 -9268 -9192 -9160 -9124	-7232 -7276 -7280 -7252 -7300	7888 7816 7816 7840 7788
1991	78	736	0	17	312	1	91	0	0	0	325 322 263 170 77 -4 -69 -115 -139 -133 -90 -27 23 53 73 87 90 89 87 87 88 91 94 96 98 100 103 106 110 112 113 116 120 124 127 125 123 123 125 127 129 134 138 141 142 143 148 159 179 201	1850 1844 1828 1802 1765	-9132 -9076 -9144 -9132 -9244	-7384 -7316 -7288 -7252 -7220	7796 7848 7680 7808 7788
1992	78	736	0	17	312	1	91	0	0	1	212 215 216 219 229 242 247 244 245 250 248 234 214 197 186 182 179 171 160 148 136 122 108 96 84 71 59 49 43 38 33 27 22 19 18 19 20 19 18 19 22 22 21 20 19 19 19 19 20 23	1716 1655 1579 1488 1383	-9236 -9228 -9148 -9056 -9208	-7212 -7192 -7296 -7428 -7312	7872 7824 7820 7788 7704
1993	78	736	0	17	312	1	91	0	0	0	26 29 30 30 30 28 28 28 26 25 25 23 20 18 17 20 24 26 28 33 38 33 19 4 -4 -1 7 12 12 11 13 12 7 6 20 39 43 29 9 -4 -1 17 30 33 34 38 44 48 48 48	1268 1145 1023 909 809	-9112 -9108 -9180 -9188 -9144	-7304 -7236 -7176 -7092 -7196	7684 7708 7712 7744 7696
1994	78	736	0	17	312	1	91	0	0	0	49 52 53 50 43 33 24 19 16 12 8 5 3 3 2 -1 -1 -1 -1 -1 -2 -4 -5 -5 -3 7 29 65 112 171 246 309 327 274 147 -7 -146 -248 -300 -308 -276 -207 -119 -44 2 26 34 34 34 36	729 673 642 638 656	-9064 -9296 -9332 -9312 -9292	-7340 -7372 -7280 -7164 -6924	7716 7604 7548 7616 7672
1995	78	724	0	17	312	1	91	0	0	1	37 37 34 29 27 30 38 47 48 45 43 43 46 54 63 68 68 63 55 51 55 61 69 83 96 104 108 110 112 119 130 141 152 163 175 185 191 195 197 198 197 194 189 184 177 169 154 133 109 84	694 748 817 896 986	-9480 -9516 -9448 -9432 -9404	-6876 -6856 -6916 -6860 -6920	7736 7776 7712 7732 7744
1996	78	724	0	17	312	1	91	0	0	0	61 43 27 11 -4 -17 -31 -46 -58 -65 -69 -72 -77 -82 -85 -83 -78 -76 -79 -82 -82 -79 -72 -66 -65 -64 -62 -60 -60 -60 -61 -61 -57 -51 -50 -53 -57 -61 -59 -52 -51 -54 -55 -52 -46 -42 -42 -44 -44 -41	1084 1190 1300 1411 1517	-9476 -9460 -9544 -9556 -9580	-6876 -6840 -6880 -6848 -6800	7760 7780 7756 7676 7636
1997	78	724	0	17	312	1	91	0	0	0	-38 -36 -35 -34 -34 -36 -37 -35 -31 -25 -21 -20 -18 -21 -30 -31 -16 -1 6 8 5 4 15 30 38 38 37 38 37 37 43 54 59 60 59 53 44 38 34 29 23 19 15 13 15 20 24 23 22 22	1615 1699 1766 1815 1847	-9492 -9496 -9492 -9508 -9488	-6820 -6808 -6788 -6800 -6744	7712 7684 7676 7692 7628
1998	78	724	0	17	312	1	91	0	0	0	19 12 10 19 28 35 42 47 61 92 135 188 259 332 369 345 249 118 -8 -117 -192 -228 -226 -179 -96 -14 40 72 95 107 111 112 108 101 101 110 115 112 110 111 107 106 112 118 122 123 120 117 118 123	1864 1869 1863 1850 1831	-9500 -9572 -9524 -9548 -9544	-6716 -6760 -6788 -6760 -6744	7668 7632 7620 7652 7644
1999	78	728	0	17	312	1	91	0	0	1	130 140 149 158 166 171 175 179 182 184 190 200 207 213 222 233 242 251 258 264 272 277 277 274 270 263 253 239 223 208 191 172 153 137 121 102 82 66 54 44 33 18 0 -17 -25 -26 -24 -19 -16 -19	1806 1776 1740 1701 1657	-9548 -9604 -9644 -9556 -9556	-6704 -6744 -6732 -6720 -6728	7588 7664 7612 7652 7640
2000	78	728	0	19	312	1	91	0	0	0	-27 -34 -31 -19 -5 3 2 -6 -12 -9 -1 -1 -9 -11 -8 -3 2 5 4 2 3 3 -2 -7 -8 -6 -2 -1 -2 -4 -6 -11 -13 -13 -14 -14 -10 -7 -7 -8 -9 -9 -10 -11 -10 -8 -9 -10 -9 -5	1610 1560 1509 1456 1402	-9636 -9608 -9612 -9564 -9636	-6668 -6680 -6692 -6688 -6640	7664 7592 7632 7624 7656
2001	78	728	0	19	312	1	91	0	0	0	1 5 3 -6 -16 -21 -15 -2 11 22 35 47 55 54 39 23 11 -3 -15 -26 -36 -42 -45 -47 -41 -27 -10 -3 -6 -13 -18 -19 -20 -23 -24 -25 -27 -27 -19 4 48 115 196 271 309 284 191 65 -51 -146	1348 1295 1244 1197 1155	-9588 -9616 -9620 -9644 -9596	-6692 -6648 -6612 -6696 -6648	7636 7612 7608 7636 7564
2002	78	724	0	19	312	1	91	0	0	0	-214 -251 -265 -246 -181 -95 -34 -4 6 6 7 13 14 8 1 3 16 28 33 34 33 32 37 45 45 37 26 16 14 20 25 30 35 43 57 72 78 74 70 75 90 109 123 131 135 142 149 152 150 149	1118 1087 1060 1036 1014	-9592 -9624 -9616 -9592 -9580	-6624 -6672 -6684 -6668 -6660	7636 7664 7676 7704 7744
2003	78	724	0	19	312	1	91	0	0	1	148 143 137 128 120 113 107 103 99 91 78 60 40 21 3 -12 -25 -37 -50 -63 -71 -71 -71 -78 -90 -98 -102 -100 -97 -95 -96 -97 -99 -101 -104 -98 -91 -93 -101 -106 -105 -101 -97 -95 -92 -89 -87 -83 -80 -78	992 970 946 923 898	-9612 -9664 -9540 -9608 -9600	-6672 -6704 -6684 -6636 -6708	7684 7592 7680 7704 7632
2004	78	724	0	19	312	1	91	0	0	0	-76 -75 -74 -74 -74 -77 -83 -85 -82 -77 -76 -78 -81 -83 -79 -73 -69 -64 -61 -64 -69 -77 -82 -83 -81 -74 -64 -57 -53 -51 -48 -41 -33 -26 -23 -26 -34 -39 -42 -45 -49 -58 -70 -77 -77 -71 -70 -75 -79 -77	874 850 825 799 772	-9592 -9548 -9560 -9540 -9544	-6716 -6752 -6752 -6776 -6812	7660 7688 7668 7684 7700
2005	78	724	0	19	312	1	91	0	0	0	-68 -57 -51 -57 -64 -66 -67 -65 -65 -71 -77 -78 -69 -45 -10 29 72 130 195 232 206 118 7 -96 -176 -231 -264 -274 -241 -169 -95 -48 -26 -18 -21 -25 -24 -20 -14 -9 -5 -3 -2 4 15 23 28 32 25 13	743 713 680 646 608	-9532 -9504 -9488 -9516 -9476	-6804 -6804 -6784 -6768 -6856	7712 7596 7684 7692 7676
2006	78	696	0	19	312	1	91	0	0	1	6 5 10 22 33 37 41 49 57 63 69 69 71 78 84 87 94 102 114 128 140 149 155 162 172 180 184 183 181 174 160 146 134 118 104 94 85 77 67 50 32 17 4 -3 -9 -18 -31 -43 -52 -60	567 522 473 421 367	-9504 -9504 -9488 -9484 -9480	-6824 -6840 -6824 -6844 -6828	7648 7640 7640 7632 7596
2007	78	696	0	19	312	1	91	0	0	0	-64 -62 -60 -55 -53 -54 -56 -57 -57 -53 -47 -44 -41 -35 -28 -21 -17 -18 -22 -22 -19 -20 -26 -31 -36 -38 -32 -22 -13 -8 -6 -4 -2 6 15 14 10 7 5 4 4 7 9 9 10 12 15 17 19 24	310 252 194 136 80	-9448 -9460 -9508 -9520 -9516	-6828 -6852 -6860 -6836 -6796	7636 7684 7648 7656 7664
2008	78	696	0	19	312	1	91	0	0	0	33 44 59 73 80 83 87 94 103 113 120 123 127 132 138 143 147 152 157 161 163 162 161 161 162 165 171 178 184 189 195 202 207 213 222 231 238 245 253 259 265 277 298 333 381 446 532 614 658 633	27 -21 -63 -98 -122	-9468 -9492 -9576 -9532 -9572	-6812 -6800 -6760 -6724 -6744	7676 7664 7600 7688 7620
2009	80	720	0	19	312	1	91	0	0	0	526 377 238 129 63 42 57 110 197 286 352 390 408 411 409 411 417 423 427 431 429 421 418 425 435 442 445 445 445 451 459 464 467 467 463 459 464 479 495 507 512 512 514 520 526 529 531 533 534 534	-133 -126 -97 -38 56	-9624 -9568 -9584 -9604 -9652	-6664 -6720 -6796 -6676 -6572	7640 7704 7728 7736 7696
2010	80	720	0	19	312	1	91	0	0	1	539 552 567 581 591 594 588 578 566 552 536 519 501 479 456 434 413 392 368 343 318 295 276 260 244 230 219 210 201 192 183 174 169 166 164 163 163 163 159 151 138 122 111 111 126 151 171 176 171 160	187 357 563 799 1061	-9716 -9680 -9740 -9712 -9736	-6600 -6548 -6480 -6516 -6572	7792 7664 7712 7728 7732
2011	80	720	0	19	312	1	91	0	0	0	147 138 131 125 121 119 118 113 107 105 103 99 96 94 90 85 81 81 80 78 76 75 73 72 70 67 65 66 69 71 69 66 66 65 64 64 63 61 59 60 63 69 78 85 89 88 86 84 82 78	1340 1632 1929 2226 2517	-9728 -9772 -9740 -9752 -9720	-6512 -6428 -6440 -6484 -6528	7736 7724 7724 7684 7768
2012	80	720	0	19	312	1	91	0	0	0	75 74 74 75 75 71 64 56 48 40 34 32 30 32 35 37 38 38 36 35 35 34 33 31 30 30 34 43 62 93 140 207 292 361 376 317 187 38 -94 -194 -249 -264 -243 -184 -99 -20 29 51 52 44	2797 3064 3319 3562 3795	-9708 -9716 -9720 -9748 -9776	-6556 -6552 -6520 -6468 -6476	7712 7784 7748 7720 7664
2013	80	744	0	19	312	1	91	0	0	1	38 32 28 36 63 95 114 116 105 94 90 89 87 84 85 87 87 87 90 92 95 97 101 103 103 104 106 112 123 138 155 169 178 185 189 195 203 208 209 207 204 200 195 191 190 190 186 176 159 138	4019 4233 4435 4623 4796	-9732 -9716 -9748 -9808 -9728	-6532 -6504 -6504 -6432 -6496	7784 7688 7768 7800 7732
2014	80	744	0	19	312	1	91	0	0	0	118 100 81 61 41 22 5 -11 -25 -40 -54 -62 -67 -72 -75 -76 -77 -76 -74 -74 -74 -73 -72 -72 -71 -70 -68 -65 -62 -61 -60 -59 -56 -54 -54 -55 -57 -59 -61 -60 -56 -54 -53 -54 -58 -59 -59 -57 -55 -54	4953 5091 5211 5314 5399	-9832 -9816 -9748 -9704 -9708	-6444 -6396 -6436 -6452 -6412	7772 7708 7736 7704 7732
2015	80	744	0	19	312	1	91	0	0	0	-53 -52 -53 -54 -54 -51 -47 -45 -46 -48 -49 -49 -47 -47 -47 -44 -41 -41 -40 -38 -38 -38 -38 -38 -38 -34 -29 -23 -16 -11 -9 -10 -11 -9 -6 -4 -4 -5 -3 -3 -5 -10 -17 -24 -28 -31 -33 -33 -34 -35	5471 5535 5594 5654 5717	-9712 -9716 -9716 -9700 -9664	-6480 -6508 -6604 -6524 -6480	7692 7692 7696 7664 7688
2016	80	744	0	19	312	1	91	0	0	0	-36 -37 -36 -35 -35 -35 -36 -36 -33 -31 -31 -32 -32 -25 -7 26 72 132 200 255 265 209 104 -6 -100 -175 -224 -248 -245 -202 -136 -77 -41 -21 -10 -6 -5 -5 -5 -6 -5 -3 0 1 3 3 3 3 2 3	5785 5856 5929 5997 6054	-9648 -9704 -9820 -9860 -9868	-6564 -6536 -6412 -6392 -6268	7704 7780 7760 7848 7856
2017	80	744	0	19	312	1	91	0	0	1	6 10 13 16 19 22 26 31 37 42 45 51 57 64 71 76 81 89 99 110 120 128 134 137 141 144 146 146 144 141 136 130 123 114 106 96 83 71 58 46 35 24 9 -4 -14 -22 -29 -36 -41 -46	6093 6106 6086 6028 5929	-9916 -9992 -10064 -10056 -9952	-6136 -6184 -6280 -6304 -6340	7848 7948 7932 7984 7920
2018	80	744	0	19	312	1	91	0	0	0	-48 -48 -48 -47 -45 -42 -39 -38 -37 -34 -33 -32 -30 -28 -25 -23 -20 -19 -17 -16 -16 -15 -15 -14 -13 -13 -13 -15 -17 -20 -21 -22 -25 -30 -34 -39 -41 -39 -39 -41 -45 -49 -53 -56 -58 -61 -68 -77 -89 -97	5789 5612 5401 5161 4895	-9936 -9864 -9788 -9764 -9820	-6324 -6336 -6336 -6344 -6408	7884 7852 7844 7780 7832
2019	81	744	0	19	312	1	91	0	0	0	-97 -89 -82 -86 -98 -113 -121 -124 -127 -133 -142 -146 -144 -135 -128 -130 -141 -157 -172 -183 -191 -194 -198 -200 -202 -216 -241 -263 -276 -282 -287 -293 -304 -317 -326 -335 -346 -354 -361 -367 -373 -382 -395 -409 -414 -418 -427 -424 -408 -382	4607 4301 3978 3639 3280	-9716 -9780 -9540 -9396 -9328	-6592 -6604 -6748 -6796 -6752	7800 7840 7616 7736 7832
2020	81	744	0	18	312	1	91	0	0	0	-340 -281 -219 -180 -189 -274 -419 -573 -702 -789 -831 -836 -804 -737 -660 -604 -575 -564 -564 -573 -585 -595 -600 -600 -599 -601 -605 -616 -632 -645 -650 -645 -639 -640 -648 -652 -650 -650 -654 -664 -670 -666 -661 -660 -661 -660 -657 -654 -652 -649	2899 2494 2067 1622 1164	-9316 -9396 -9396 -9308 -9272	-6964 -7072 -7168 -7220 -7308	7648 7776 7812 7812 7856
2021	81	736	0	18	312	1	91	0	0	1	-646 -642 -640 -636 -630 -622 -613 -604 -600 -606 -622 -637 -645 -652 -658 -667 -680 -695 -708 -722 -739 -758 -777 -797 -818 -837 -853 -867 -881 -895 -908 -917 -922 -924 -925 -926 -934 -941 -943 -940 -935 -933 -935 -936 -932 -923 -916 -913 -911 -908	703 248 -193 -611 -999	-9236 -9268 -9212 -9196 -9232	-7300 -7328 -7232 -7224 -7260	7712 7800 7796 7832 7900
2022	81	736	0	18	312	1	91	0	0	0	-906 -901 -896 -893 -891 -888 -881 -873 -865 -861 -865 -873 -874 -866 -857 -849 -844 -844 -841 -833 -828 -825 -823 -820 -812 -800 -791 -782 -776 -772 -767 -762 -756 -748 -738 -730 -725 -718 -709 -701 -692 -684 -678 -672 -666 -658 -648 -635 -622 -609	-1350 -1662 -1936 -2175 -2386	-9192 -9092 -9156 -9272 -9364	-7252 -7356 -7252 -7176 -7244	7780 7756 7588 7684 7684
2023	81	736	0	18	312	1	91	0	0	0	-602 -598 -592 -582 -572 -562 -554 -546 -535 -523 -512 -504 -499 -494 -488 -486 -486 -484 -482 -480 -478 -475 -469 -462 -455 -448 -443 -438 -430 -420 -410 -402 -397 -393 -387 -380 -371 -361 -345 -313 -266 -205 -128 -42 20 27 -43 -174 -313 -435	-2575 -2744 -2897 -3035 -3159	-9324 -9300 -9156 -9164 -9284	-7224 -7144 -7036 -7096 -7104	7636 7660 7684 7552 7480
2024	81	764	0	18	312	1	91	0	0	0	-520 -558 -560 -525 -448 -354 -276 -225 -195 -180 -171 -162 -154 -149 -145 -137 -126 -118 -113 -108 -103 -97 -90 -84 -77 -71 -66 -59 -52 -42 -34 -28 -20 -9 3 16 28 38 48 58 65 74 88 103 118 130 137 143 154 168	-3268 -3361 -3436 -3490 -3522	-9404 -9328 -9340 -9472 -9500	-7060 -6940 -6916 -6936 -6900	7636 7636 7732 7640 7620
2025	81	764	0	18	312	1	91	0	0	1	179 188 191 189 186 185 182 177 169 157 146 135 120 105 91 79 66 51 36 22 12 6 0 -5 -9 -9 -8 -7 -5 -2 1 3 5 6 8 12 16 19 24 30 35 37 36 36 38 43 47 49 48 48	-3532 -3521 -3492 -3451 -3405	-9432 -9432 -9480 -9436 -9488	-6960 -6936 -6848 -6748 -6816	7572 7680 7680 7552 7536
2026	81	764	0	18	312	1	91	0	0	0	50 50 49 50 51 52 52 54 56 58 60 59 59 61 63 63 63 66 71 77 78 75 74 74 75 77 78 75 73 74 76 79 83 86 88 88 90 93 101 107 110 115 121 122 118 113 111 114 120 124	-3361 -3325 -3301 -3292 -3302	-9480 -9392 -9444 -9352 -9504	-6880 -6812 -6756 -6856 -6828	7500 7496 7428 7396 7372
2027	81	764	0	18	312	1	91	0	0	0	129 132 136 134 120 105 93 86 83 85 86 85 85 87 89 91 94 98 102 103 99 91 84 81 86 101 125 160 207 273 351 412 419 349 222 94 -13 -91 -133 -149 -135 -81 -2 66 107 129 143 149 146 139	-3330 -3376 -3439 -3516 -3604	-9512 -9472 -9468 -9548 -9476	-6840 -6636 -6692 -6872 -6800	7456 7560 7504 7340 7408
2028	81	752	0	18	312	1	91	0	0	1	132 128 131 138 143 147 150 154 159 166 175 188 196 194 190 190 192 198 205 214 221 228 235 242 251 262 272 284 297 309 321 331 342 355 367 377 384 391 401 405 401 399 401 404 403 397 387 376 371 367	-3699 -3801 -3907 -4013 -4116	-9404 -9400 -9484 -9524 -9488	-6732 -6736 -6804 -6720 -6780	7464 7504 7448 7524 7500
2029	82	752	0	18	312	1	91	0	0	0	362 356 350 343 335 329 327 326 324 324 327 333 336 336 335 339 350 365 377 387 396 406 416 428 440 454 468 481 496 510 523 535 544 555 568 583 598 611 622 635 649 664 677 686 697 711 729 747 762 778	-4210 -4290 -4347 -4377 -4374	-9504 -9408 -9448 -9408 -9428	-6788 -6808 -6812 -6812 -6848	7488 7436 7472 7488 7448
2030	82	752	0	18	312	1	91	0	0	0	793 807 820 830 839 852 867 884 900 915 928 942 956 969 983 996 1007 1022 1041 1064 1086 1106 1122 1138 1156 1174 1194 1212 1229 1246 1265 1282 1295 1306 1315 1326 1338 1348 1353 1355 1361 1369 1378 1387 1394 1400 1403 1405 1404 1403	-4330 -4242 -4104 -3915 -3673	-9432 -9448 -9408 -9432 -9452	-6812 -6816 -6808 -6840 -6836	7464 7432 7480 7412 7456
2031	82	752	0	18	312	1	91	0	0	0	1401 1393 1383 1377 1377 1388 1410 1439 1476 1521 1562 1568 1511 1400 1278 1169 1079 1015 973 952 964 999 1033 1049 1047 1038 1025 1005 982 961 941 921 903 886 866 844 825 809 793 775 754 731 706 684 667 655 643 628 614 601	-3382 -3045 -2667 -2255 -1818	-9444 -9448 -9396 -9488 -9460	-6820 -6764 -6764 -6840 -6828	7452 7508 7460 7460 7512
2032	82	712	0	18	312	1	91	0	0	1	588 577 566 554 545 537 527 515 505 496 488 483 478 472 465 457 447 433 417 400 384 368 352 334 315 299 284 261 233 208 186 169 149 125 100 80 66 54 44 36 29 18 0 -14 -22 -26 -28 -33 -39 -43	-1366 -908 -452 -7 423	-9456 -9468 -9496 -9508 -9464	-6780 -6780 -6792 -6800 -6820	7492 7500 7492 7496 7556
2033	82	712	0	18	312	1	91	0	0	0	-42 -40 -39 -42 -49 -56 -60 -62 -62 -66 -70 -72 -71 -69 -71 -79 -87 -93 -95 -93 -91 -91 -95 -100 -104 -107 -108 -109 -109 -109 -111 -112 -113 -114 -116 -118 -119 -118 -117 -116 -116 -114 -109 -101 -94 -90 -90 -91 -91 -91	834 1221 1583 1918 2226	-9428 -9476 -9452 -9444 -9404	-6776 -6820 -6804 -6812 -6828	7496 7488 7508 7492 7500
2034	82	712	0	18	312	1	91	0	0	0	-91 -93 -94 -95 -96 -99 -104 -110 -117 -121 -122 -123 -123 -123 -123 -124 -125 -124 -124 -123 -121 -119 -117 -116 -117 -118 -116 -108 -88 -57 -13 43 111 169 186 137 28 -97 -203 -280 -321 -335 -323 -278 -207 -143 -102 -79 -68 -63	2506 2759 2986 3190 3373	-9440 -9476 -9512 -9480 -9444	-6844 -6848 -6768 -6748 -6752	7548 7516 7444 7544 7516
2035	82	696	0	18	312	1	91	0	0	1	-62 -63 -64 -63 -61 -58 -56 -54 -54 -52 -48 -45 -44 -42 -40 -38 -33 -28 -23 -21 -19 -14 -9 -6 -1 4 10 17 23 30 37 45 55 64 72 81 90 97 102 103 104 105 104 101 96 89 81 72 64 52	3536 3679 3804 3910 3996	-9476 -9480 -9484 -9496 -9480	-6744 -6768 -6788 -6804 -6832	7456 7512 7468 7560 7588
2036	82	696	0	18	312	1	91	0	0	0	37 23 8 -5 -18 -34 -50 -65 -76 -85 -94 -102 -109 -113 -116 -117 -118 -119 -119 -115 -110 -105 -104 -106 -108 -108 -104 -100 -98 -97 -95 -92 -91 -90 -86 -83 -80 -79 -79 -80 -81 -78 -75 -72 -69 -68 -65 -63 -62 -62	4064 4115 4149 4167 4171	-9484 -9452 -9480 -9472 -9440	-6812 -6856 -6844 -6844 -6836	7540 7568 7576 7560 7528
2037	82	696	0	18	312	1	91	0	0	0	-61 -60 -57 -56 -59 -64 -64 -61 -58 -54 -52 -49 -42 -33 -23 -15 -9 -6 -7 -6 -3 2 6 6 4 2 1 0 -3 -10 -17 -21 -23 -27 -30 -31 -30 -28 -26 -25 -26 -25 -25 -24 -22 -21 -20 -18 -17 -12	4161 4140 4107 4066 4017	-9440 -9448 -9428 -9456 -9396	-6856 -6860 -6852 -6860 -6808	7524 7528 7512 7536 7512
2038	82	696	0	18	312	1	91	0	0	0	6 39 85 146 225 301 336 306 193 30 -128 -250 -317 -328 -299 -238 -150 -67 -10 21 33 34 34 35 37 37 39 41 40 38 37 37 40 43 46 50 53 54 56 58 59 62 65 68 72 78 82 88 94 101	3961 3901 3836 3769 3698	-9428 -9472 -9488 -9472 -9532	-6856 -6780 -6776 -6852 -6896	7488 7484 7544 7548 7528
2039	83	688	0	18	312	1	91	0	0	1	109 118 127 137 145 153 160 167 177 184 192 199 201 198 196 192 185 179 171 159 145 127 104 80 56 35 17 0 -18 -35 -50 -65 -78 -85 -89 -95 -99 -98 -95 -91 -87 -89 -97 -105 -108 -107 -102 -95 -90 -89	3625 3548 3467 3378 3279	-9464 -9396 -9376 -9404 -9456	-6900 -6936 -6912 -6876 -6840	7596 7572 7588 7556 7612
2040	83	688	0	18	312	1	91	0	0	0	-89 -89 -88 -85 -83 -82 -81 -79 -77 -74 -73 -74 -74 -74 -72 -72 -73 -74 -76 -76 -75 -72 -68 -65 -63 -66 -73 -78 -82 -82 -73 -65 -62 -61 -58 -54 -47 -42 -38 -31 -25 -22 -20 -19 -18 -16 -16 -14 -11 -8	3171 3054 2930 2801 2668	-9556 -9468 -9440 -9376 -9484	-6844 -6844 -6836 -6852 -6824	7604 7568 7556 7596 7592
2041	83	688	0	18	312	1	91	0	0	0	-6 -9 -18 -28 -35 -36 -30 -28 -31 -34 -39 -42 -39 -36 -34 -31 -24 -19 -19 -24 -28 -29 -29 -26 -17 6 44 95 164 247 311 322 254 113 -46 -183 -277 -318 -319 -283 -210 -119 -43 1 23 33 38 44 51 53	2535 2400 2267 2135 2005	-9548 -9420 -9392 -9440 -9444	-6796 -6868 -6888 -6876 -6884	7616 7580 7552 7648 7580
2042	83	700	0	18	312	1	91	0	0	1	47 43 41 38 41 48 51 51 52 58 64 68 75 81 83 87 88 89 96 103 108 110 109 111 121 131 136 142 149 153 155 162 179 199 218 230 232 227 221 212 201 192 187 182 172 157 142 127 111 92	1876 1747 1618 1488 1356	-9464 -9500 -9488 -9436 -9484	-6844 -6824 -6788 -6804 -6884	7544 7572 7548 7588 7620
2043	83	700	0	18	312	1	91	0	0	0	71 48 28 15 4 -6 -14 -28 -46 -61 -69 -72 -72 -72 -71 -71 -70 -69 -67 -62 -55 -51 -51 -51 -48 -46 -46 -46 -45 -42 -39 -38 -42 -46 -44 -37 -33 -31 -29 -29 -34 -36 -31 -32 -38 -43 -51 -58 -51 -39	1222 1086 949 810 671	-9448 -9424 -9448 -9448 -9480	-6872 -6892 -6852 -6852 -6848	7588 7588 7520 7584 7612
2044	83	700	0	18	312	1	91	0	0	0	-29 -20 -17 -18 -21 -22 -19 -17 -15 -15 -19 -22 -22 -14 2 17 25 27 29 36 43 46 38 27 21 20 18 14 9 6 5 7 7 5 3 1 -1 -2 1 7 17 25 26 23 22 16 13 24 46 81	530 386 240 89 -67	-9440 -9412 -9492 -9440 -9416	-6844 -6820 -6820 -6832 -6844	7588 7572 7536 7580 7532
2045	83	700	0	18	312	1	91	0	0	0	128 192 270 335 349 285 144 -21 -164 -261 -303 -302 -266 -196 -113 -48 -12 4 6 4 5 4 0 -5 -9 -15 -22 -28 -31 -30 -28 -29 -35 -46 -58 -66 -72 -79 -87 -95 -104 -110 -113 -113 -114 -117 -123 -130 -134 -139	-227 -394 -568 -752 -947	-9416 -9456 -9492 -9440 -9404	-6820 -6816 -6852 -6800 -6852	7524 7516 7544 7520 7596
2046	83	692	0	18	312	1	91	0	0	1	-145 -155 -165 -170 -173 -179 -189 -199 -208 -217 -228 -245 -269 -295 -320 -344 -365 -389 -423 -462 -499 -531 -561 -587 -617 -650 -681 -712 -744 -773 -798 -819 -835 -850 -862 -875 -889 -904 -917 -927 -934 -939 -943 -951 -960 -967 -971 -975 -979 -986	-1153 -1367 -1584 -1800 -2010	-9444 -9484 -9528 -9468 -9412	-6752 -6748 -6844 -6876 -6860	7564 7560 7528 7544 7548
2047	83	692	0	18	312	1	91	0	0	0	-999 -1003 -1007 -1014 -1024 -1035 -1044 -1051 -1055 -1058 -1063 -1067 -1071 -1075 -1074 -1068 -1063 -1066 -1072 -1076 -1077 -1073 -1069 -1067 -1066 -1063 -1054 -1043 -1034 -1026 -1020 -1014 -1014 -1017 -1015 -1009 -1001 -993 -992 -1000 -1008 -1009 -1006 -1004 -1003 -1002 -997 -987 -975 -965	-2210 -2402 -2585 -2763 -2937	-9476 -9404 -9408 -9420 -9456	-6896 -6868 -6808 -6840 -6852	7560 7504 7560 7568 7500
2048	83	692	0	18	312	1	91	0	0	0	-956 -949 -943 -936 -929 -923 -919 -917 -914 -906 -893 -874 -849 -817 -774 -717 -648 -581 -544 -561 -630 -718 -796 -861 -912 -942 -947 -911 -842 -774 -730 -703 -684 -669 -659 -653 -647 -640 -629 -617 -609 -600 -587 -571 -556 -546 -543 -541 -539 -534	-3109 -3277 -3443 -3603 -3760	-9424 -9436 -9428 -9404 -9400	-6868 -6840 -6848 -6876 -6820	7444 7416 7400 7524 7432
2049	84	664	0	18	312	1	91	0	0	1	-521 -503 -486 -469 -457 -448 -440 -427 -411 -394 -378 -368 -360 -349 -335 -318 -299 -280 -266 -255 -247 -240 -227 -209 -189 -176 -174 -176 -179 -181 -180 -178 -180 -187 -194 -196 -198 -202 -209 -216 -220 -219 -218 -218 -218 -219 -221 -224 -224 -219	-3912 -4060 -4204 -4344 -4477	-9404 -9440 -9444 -9456 -9460	-6820 -6772 -6792 -6836 -6776	7416 7492 7492 7452 7464
2050	84	664	0	18	312	1	91	0	0	0	-210 -205 -203 -202 -196 -185 -175 -168 -161 -154 -147 -140 -132 -129 -129 -123 -115 -110 -105 -102 -103 -99 -89 -77 -70 -69 -66 -58 -52 -53 -56 -59 -58 -53 -45 -39 -34 -28 -23 -21 -24 -20 -8 3 8 13 19 25 30 33	-4604 -4723 -4835 -4939 -5036	-9468 -9456 -9464 -9480 -9444	-6772 -6780 -6808 -6756 -6748	7476 7528 7496 7524 7560
2051	84	664	0	18	312	1	91	0	0	0	31 28 27 27 24 23 23 19 14 11 9 8 9 10 10 11 13 14 18 23 29 32 30 22 15 17 28 52 83 119 168 235 300 329 294 189 53 -70 -162 -210 -221 -196 -137 -53 19 57 72 78 80 85	-5128 -5216 -5303 -5390 -5481	-9496 -9496 -9396 -9404 -9452	-6760 -6788 -6820 -6808 -6724	7508 7660 7708 7640 7800
2052	84	656	0	18	312	1	91	0	0	1	92 94 92 92 96 98 101 108 115 116 113 107 108 119 133 138 129 116 112 120 130 135 138 142 150 155 157 159 169 187 202 209 214 218 224 233 241 245 248 249 249 249 251 252 248 236 217 198 185 177	-5578 -5681 -5790 -5905 -6023	-9480 -9576 -9584 -9520 -9532	-6840 -7004 -6960 -6920 -6908	7816 7620 7632 7652 7576
2053	84	656	0	18	312	1	91	0	0	0	162 142 121 99 80 64 49 37 31 29 26 22 21 21 16 8 4 3 5 9 12 15 19 24 24 21 21 23 27 30 30 29 31 35 36 33 28 28 28 28 30 32 33 34 32 24 17 16 20 25	-6141 -6256 -6366 -6469 -6562	-9472 -9424 -9356 -9416 -9516	-6836 -6748 -6816 -6820 -6872	7496 7772 7792 7724 7648
2054	84	656	0	18	312	1	91	0	0	0	30 32 28 25 24 27 35 46 55 60 63 67 71 75 79 81 81 81 82 84 84 81 75 65 54 46 45 42 35 31 34 38 42 41 38 37 41 46 53 59 65 67 64 69 92 136 198 272 340 374	-6642 -6705 -6746 -6761 -6746	-9548 -9532 -9564 -9532 -9592	-6824 -6812 -6916 -6868 -6980	7648 7648 7608 7516 7540
2055	84	664	0	18	312	1	91	0	0	0	348 251 120 -1 -96 -151 -168 -159 -120 -51 18 64 89 100 104 109 112 112 110 108 106 102 101 104 111 117 113 103 103 112 123 130 133 133 134 139 144 147 150 156 162 168 176 184 192 201 210 219 229 240	-6700 -6617 -6498 -6344 -6159	-9476 -9684 -9584 -9516 -9472	-6820 -7232 -7136 -6848 -6644	7452 7620 7576 7716 7744
2056	84	664	0	18	312	1	91	0	0	1	250 261 269 272 273 273 272 270 266 261 255 246 234 218 202 187 170 154 137 120 104 87 65 40 16 2 0 7 23 38 42 41 35 28 28 30 32 33 33 34 34 35 36 36 35 35 35 37 39 39	-5949 -5721 -5483 -5240 -4992	-9356 -9336 -9396 -9728 -9840	-6812 -6492 -6236 -6896 -7128	7840 7920 8052 7788 7740
2057	84	664	0	18	312	1	91	0	0	0	38 37 37 37 37 37 35 33 32 28 24 23 24 25 26 26 25 25 26 29 30 29 32 38 44 51 57 58 57 59 62 65 64 60 56 52 47 41 33 25 21 19 16 15 15 16 15 13 12 10	-4739 -4484 -4230 -3985 -3752	-9816 -9564 -9488 -9460 -9528	-7132 -6672 -6420 -6516 -6652	7568 7688 7680 7600 7544
2058	84	664	0	18	312	1	91	0	0	0	5 5 5 3 2 1 0 0 5 18 38 79 151 243 322 357 317 204 74 -32 -114 -167 -189 -185 -151 -87 -22 17 34 41 44 45 47 47 46 44 43 44 45 45 46 48 51 54 57 60 59 58 59 62	-3539 -3346 -3171 -3014 -2874	-9560 -9564 -9488 -9432 -9428	-6724 -6664 -6508 -6620 -6628	7492 7476 7492 7396 7412
2059	86	668	0	18	312	1	91	0	0	1	65 66 65 65 69 77 88 101 110 110 105 106 111 119 132 145 155 167 176 181 182 181 179 177 173 167 161 153 143 132 118 103 87 69 53 39 24 10 -2 -13 -22 -29 -35 -41 -46 -50 -52 -52 -53 -55	-2752 -2647 -2556 -2476 -2401	-9464 -9516 -9428 -9476 -9460	-6716 -6652 -6556 -6652 -6796	7404 7348 7380 7176 7108
2060	86	668	0	17	312	1	91	0	0	0	-57 -59 -60 -58 -46 -35 -40 -38 -13 3 -4 -18 -39 -55 -50 -38 -38 -43 -40 -32 -31 -33 -32 -28 -26 -29 -31 -30 -29 -29 -30 -30 -29 -30 -30 -28 -27 -28 -27 -27 -26 -22 -18 -15 -12 -9 -6 -4 -7 -12	-2325 -2245 -2158 -2066 -1972	-9364 -9836 -9804 -9308 -9044	-6768 -7132 -7072 -7068 -6892	7112 7168 7508 7560 7652
2061	86	668	0	17	311	1	91	0	0	0	-17 -20 -23 -24 -24 -22 -20 -28 -40 -49 -51 -48 -46 -48 -50 -51 -54 -61 -62 -53 -46 -48 -56 -66 -75 -74 -63 -45 -17 22 68 126 194 240 232 157 46 -49 -117 -164 -192 -207 -200 -168 -121 -80 -57 -44 -39 -39	-1884 -1806 -1744 -1699 -1669	-9080 -9152 -9280 -9288 -8896	-6912 -7012 -7340 -7416 -7044	7768 7932 7840 7548 7692
2062	86	672	0	17	311	1	91	0	0	1	-40 -38 -38 -44 -49 -48 -46 -45 -39 -33 -29 -30 -36 -38 -36 -31 -21 -10 -2 0 -8 -22 -32 -22 3 26 31 22 13 13 22 36 45 50 56 62 67 72 76 79 78 73 65 58 53 47 38 28 15 3	-1650 -1638 -1633 -1637 -1650	-8856 -8904 -9008 -9068 -9060	-7004 -7080 -7240 -7020 -7064	7696 7472 7364 7428 7296
2063	86	672	0	17	311	1	91	0	0	0	-7 -17 -26 -38 -51 -62 -71 -81 -92 -101 -108 -112 -116 -120 -121 -121 -121 -120 -120 -119 -116 -112 -109 -108 -108 -106 -104 -102 -98 -94 -92 -90 -87 -86 -84 -83 -81 -80 -78 -75 -73 -72 -71 -74 -79 -80 -79 -73 -68 -66	-1677 -1713 -1755 -1795 -1821	-9052 -8960 -8924 -9120 -9196	-7076 -7020 -7092 -7160 -7212	7228 7264 7208 7092 7132
2064	86	672	0	17	311	1	91	0	0	0	-65 -68 -70 -67 -59 -50 -45 -41 -31 -19 -11 -8 -13 -22 -24 -21 -19 -24 -31 -39 -45 -48 -46 -42 -40 -42 -45 -46 -43 -39 -37 -35 -32 -30 -30 -28 -24 -20 -13 4 33 77 141 215 276 295 251 147 32 -60	-1822 -1787 -1706 -1572 -1382	-9152 -9708 -9776 -9980 -9692	-7276 -7396 -7592 -7492 -6864	7116 7104 7216 7468 7640
2065	86	644	0	17	311	1	91	0	0	0	-125 -164 -186 -192 -166 -110 -51 -13 4 11 12 10 11 13 14 16 19 21 19 14 10 10 14 19 23 25 27 30 32 32 35 41 47 53 58 61 65 73 82 90 99 107 116 124 131 139 147 154 161 166	-1142 -869 -581 -294 -18	-9004 -9204 -9556 -9848 -9392	-6076 -6316 -6872 -7368 -7156	8208 7940 7948 7688 7624
2066	86	644	0	17	311	1	91	0	0	1	165 161 157 155 152 147 139 129 119 107 94 79 64 48 34 20 6 -8 -23 -36 -47 -55 -61 -66 -69 -71 -72 -73 -72 -70 -66 -64 -63 -61 -60 -60 -58 -57 -56 -53 -51 -50 -49 -47 -43 -41 -41 -43 -45 -47	243 484 705 904 1075	-9196 -9292 -9436 -9316 -9340	-6564 -6616 -6556 -6564 -6712	7444 7384 7412 7388 7268
2067	86	644	0	17	311	1	91	0	0	0	-46 -46 -47 -47 -48 -50 -51 -51 -50 -50 -51 -53 -53 -52 -50 -49 -49 -47 -40 -29 -19 -16 -17 -17 -17 -15 -13 -13 -14 -15 -17 -21 -28 -35 -43 -48 -49 -49 -49 -51 -54 -56 -54 -54 -57 -58 -56 -53 -50 -47	1217 1335 1433 1517 1590	-9248 -9220 -9348 -9628 -9504	-6772 -6716 -6700 -6692 -6928	7260 7184 7100 7116 7052
2068	86	644	0	17	311	2	91	0	0	0	-47 -47 -43 -36 -20 11 58 123 204 278 313 282 182 57 -47 -125 -175 -201 -209 -186 -130 -64 -17 6 16 17 17 19 21 19 16 17 21 26 31 36 41 45 46 45 42 40 39 43 52 61 65 65 65 71	1660 1731 1807 1888 1973	-9736 -9904 -10276 -9028 -8780	-7356 -7288 -7132 -7092 -6708	6972 7168 7224 7660 7824
2069	89	668	0	17	311	2	91	0	0	1	80 91 100 108 116 123 129 137 147 160 170 177 183 189 196 200 203 203 201 197 190 182 172 160 148 137 123 109 93 78 62 47 32 16 0 -14 -26 -37 -45 -52 -58 -61 -62 -64 -65 -68 -71 -74 -74 -75	2056 2133 2203 2266 2321	-8640 -8788 -9384 -9104 -8904	-6852 -7228 -7240 -7116 -7148	7852 7796 7468 7508 7408
2070	89	668	0	17	311	2	91	0	0	0	-75 -75 -74 -72 -70 -72 -73 -73 -74 -74 -73 -73 -74 -75 -74 -74 -75 -77 -80 -82 -83 -83 -83 -84 -86 -88 -88 -86 -85 -85 -87 -88 -85 -81 -78 -77 -77 -77 -76 -70 -64 -59 -57 -56 -54 -51 -48 -48 -51 -55	2368 2406 2437 2459 2477	-8764 -8804 -8784 -8776 -8828	-7268 -7228 -7172 -7060 -6964	7380 7336 7356 7296 7312
2071	89	668	0	17	311	2	91	0	0	0	-56 -54 -54 -58 -64 -72 -77 -79 -79 -79 -78 -77 -76 -76 -75 -74 -71 -68 -66 -66 -67 -68 -66 -61 -49 -27 8 56 123 203 274 302 261 155 36 -65 -145 -197 -225 -231 -203 -146 -86 -43 -22 -11 -8 -10 -10 -9	2490 2499 2506 2511 2514	-8828 -9072 -9236 -9208 -9604	-7052 -7344 -7452 -7504 -7576	7288 7248 7128 6976 7160
2072	89	680	0	17	311	2	91	0	0	1	-9 -8 -5 -1 3 3 4 7 9 10 11 11 12 14 17 21 24 27 30 34 37 43 49 53 59 65 70 76 83 89 97 104 111 116 121 124 127 128 126 122 116 108 100 91 82 75 65 52 37 22	2515 2513 2508 2498 2484	-9924 -10156 -9868 -9256 -9160	-7660 -7416 -7012 -6568 -6216	7280 7412 7620 7932 7912
2073	89	680	0	17	311	2	91	0	0	0	6 -6 -18 -31 -44 -57 -68 -75 -81 -87 -90 -92 -93 -94 -95 -97 -96 -94 -92 -88 -86 -85 -84 -82 -78 -76 -74 -72 -73 -76 -78 -80 -81 -80 -77 -76 -75 -72 -70 -68 -69 -70 -70 -66 -63 -62 -62 -62 -63 -62	2465 2442 2419 2395 2371	-9360 -9568 -9364 -9084 -9196	-6552 -6868 -6656 -6364 -6548	7704 7432 7444 7300 7372
2074	89	680	0	17	311	2	91	0	0	0	-61 -61 -61 -60 -59 -59 -58 -56 -53 -49 -42 -35 -31 -29 -27 -23 -17 -13 -13 -16 -20 -20 -19 -19 -22 -28 -35 -40 -44 -48 -50 -50 -50 -49 -48 -48 -49 -47 -45 -43 -42 -39 -35 -31 -27 -23 -15 3 36 83	2348 2326 2304 2281 2259	-9296 -9328 -9356 -9192 -9516	-6512 -6484 -6424 -6604 -6916	7280 7344 7192 7224 7068
2075	89	680	0	17	311	2	91	0	0	0	142 201 238 226 162 76 3 -48 -85 -114 -135 -136 -115 -79 -47 -26 -10 1 3 1 0 2 5 6 8 12 15 18 21 23 26 28 31 34 36 38 41 44 46 49 52 56 60 64 66 68 70 72 77 81	2237 2216 2197 2178 2161	-9748 -9868 -10112 -10180 -9516	-6928 -6756 -7896 -7768 -7304	7132 6960 7120 7436 7564
2076	89	688	0	17	311	2	91	0	0	1	85 89 94 99 105 109 111 112 114 114 113 110 104 98 92 85 77 66 54 43 32 20 9 -1 -10 -20 -27 -35 -41 -45 -46 -48 -50 -52 -54 -54 -51 -49 -49 -48 -47 -46 -47 -48 -50 -51 -49 -46 -43 -41	2142 2121 2098 2073 2047	-8736 -8816 -9264 -9116 -8816	-6928 -7200 -7080 -6908 -6848	7948 7996 7692 7688 7476
2077	89	688	0	17	311	2	91	0	0	0	-40 -40 -41 -39 -36 -33 -31 -31 -32 -32 -31 -30 -31 -33 -35 -36 -36 -35 -34 -35 -34 -34 -33 -31 -29 -24 -19 -13 -8 -4 -3 -2 -1 -3 -5 -6 -7 -8 -9 -10 -12 -14 -19 -23 -24 -25 -24 -23 -22 -23	2020 1994 1967 1941 1916	-8552 -8688 -8720 -8728 -8900	-6692 -6784 -6828 -6848 -6920	7476 7328 7280 7200 7240
2078	89	688	0	17	311	2	91	0	0	0	-23 -25 -28 -28 -27 -25 -25 -24 -23 -21 -17 -11 3 27 62 110 170 228 262 243 169 75 -1 -53 -85 -103 -111 -103 -75 -38 -9 9 20 26 28 28 32 38 40 40 42 44 44 44 43 42 42 42 40 40	1892 1870 1850 1832 1815	-9704 -9816 -10576 -10804 -9676	-7408 -7708 -7848 -7592 -6332	6984 7140 6592 7264 7824
2079	90	664	0	17	311	2	91	0	0	1	39 37 36 35 34 36 41 44 44 44 47 51 56 64 70 76 81 84 87 91 95 97 98 100 102 104 102 98 93 89 83 75 67 60 54 48 38 27 16 7 -1 -6 -11 -19 -26 -30 -33 -34 -35 -38	1796 1775 1750 1724 1697	-9436 -9376 -9404 -9228 -9040	-5856 -6020 -6468 -6496 -6204	8272 8040 7768 7736 7540
2080	90	664	0	17	311	2	91	0	0	0	-40 -39 -36 -32 -29 -27 -24 -22 -21 -20 -18 -15 -12 -9 -4 0 5 9 11 13 16 19 20 20 20 23 27 30 33 35 36 38 40 41 43 46 49 54 59 63 69 77 89 103 114 122 127 133 139 142	1670 1645 1622 1599 1578	-8904 -9060 -9212 -9176 -9220	-6308 -6400 -6424 -6436 -6720	7544 7368 7252 7316 7204
2081	90	664	0	17	311	2	91	0	0	0	144 148 151 153 158 163 167 170 172 170 170 173 180 186 191 197 204 212 222 231 239 246 253 262 270 278 287 297 313 339 378 430 495 564 613 621 575 487 401 345 315 301 295 298 315 352 390 412 418 420	1558 1540 1524 1511 1499	-9620 -10072 -10292 -10244 -9332	-7116 -7032 -8152 -8168 -7520	6908 6876 6588 7052 7564
2082	90	664	0	17	311	2	91	0	0	1	420 420 422 424 424 424 426 430 434 438 441 445 448 452 456 459 462 465 466 470 473 476 479 483 488 493 499 503 506 511 516 522 529 535 540 543 547 551 555 559 562 563 561 558 555 550 542 534 524 514	1487 1473 1458 1440 1421	-8824 -8768 -8876 -8816 -8628	-7088 -7260 -6752 -6468 -6540	7752 7812 7504 7688 7584
2083	90	664	0	17	311	2	91	0	0	0	502 488 472 458 444 431 421 412 402 391 381 370 363 358 352 349 346 343 342 343 343 343 342 341 340 341 343 345 345 344 342 341 343 345 346 345 345 341 337 336 334 333 332 329 326 324 324 321 318 315	1402 1384 1367 1351 1337	-8496 -8612 -8792 -8876 -9312	-6576 -6712 -6972 -7012 -7140	7432 7300 7172 7196 7128
2084	90	664	0	17	311	2	91	0	0	0	311 310 309 307 305 303 302 301 302 303 306 308 310 312 315 318 323 331 335 335 335 334 334 334 333 329 326 325 325 324 317 306 297 290 286 283 279 276 274 274 274 272 273 274 275 277 277 277 278 280	1324 1314 1304 1294 1282	-10236 -11036 -11172 -10240 -9536	-8116 -8240 -7472 -6676 -6080	7000 6632 7252 7628 7884
2085	90	664	0	17	311	2	91	0	0	0	283 294 318 356 411 486 568 625 628 559 435 312 215 145 106 92 99 133 189 243 274 286 288 285 282 281 279 275 272 273 275 275 272 269 270 270 269 268 265 262 260 260 260 261 260 260 262 266 269 272	1267 1249 1229 1206 1185	-9296 -8720 -8484 -8636 -8896	-6304 -6480 -6292 -6092 -6188	7936 7752 7840 7664 7456
2086	90	692	0	17	311	2	91	0	0	1	273 275 278 284 289 293 296 299 303 308 314 319 320 317 313 307 299 291 282 270 257 244 231 216 199 182 164 144 127 111 94 79 67 55 44 36 29 23 18 15 15 15 15 14 12 9 9 10 13 16	1165 1146 1129 1114 1101	-9064 -9264 -9348 -9744 -10392	-6276 -6412 -6556 -7208 -7268	7244 7036 7196 6796 6652
2087	90	692	0	17	311	2	91	0	0	0	22 26 29 33 36 38 39 40 39 37 34 31 30 26 23 19 15 13 12 11 8 4 1 -2 -4 -6 -8 -10 -11 -12 -13 -13 -13 -13 -13 -13 -13 -13 -12 -11 -11 -9 -7 -5 -3 1 5 13 21 27	1090 1080 1070 1059 1046	-11296 -10540 -8968 -8732 -8940	-8304 -8368 -7560 -7496 -7180	6440 7292 7988 7792 7784
2088	90	692	0	17	311	2	91	0	0	0	29 29 29 29 28 24 19 16 16 16 14 8 0 -8 -12 -15 -17 -19 -22 -23 -25 -25 -23 -21 -20 -19 -19 -20 -19 -17 -16 -14 -9 4 30 71 129 202 278 328 326 254 137 26 -61 -124 -161 -181 -180 -149	1030 1011 990 971 952	-8924 -8472 -8176 -8276 -8388	-6496 -6188 -6308 -6404 -6620	7776 7656 7408 7444 7120
2089	89	732	0	17	311	2	91	0	0	1	-95 -43 -6 14 22 21 19 20 23 24 22 21 21 21 22 24 26 28 27 26 27 31 36 41 44 47 49 51 56 63 69 76 84 94 102 107 111 114 119 125 131 135 137 138 140 140 137 132 126 118	935 921 910 900 893	-8756 -9632 -10224 -11028 -11364	-6860 -7276 -7704 -8400 -7928	6992 6512 6456 6436 6636
2090	89	732	0	17	311	2	91	0	0	0	108 94 80 69 55 42 28 11 -7 -24 -39 -52 -64 -77 -89 -100 -109 -114 -117 -119 -119 -119 -121 -124 -125 -123 -120 -119 -120 -121 -119 -116 -115 -116 -118 -119 -120 -122 -125 -128 -131 -134 -137 -140 -144 -147 -147 -148 -150 -154	886 880 872 864 851	-10140 -9588 -8992 -8508 -8340	-6076 -5928 -6044 -6056 -5820	7632 7560 7780 7792 7696
2091	89	732	0	17	311	2	91	0	0	0	-159 -163 -166 -169 -175 -182 -187 -190 -193 -196 -201 -207 -210 -213 -216 -219 -221 -221 -219 -217 -217 -219 -224 -227 -230 -236 -243 -249 -255 -259 -262 -266 -274 -284 -296 -304 -310 -314 -318 -324 -331 -336 -340 -346 -354 -360 -366 -371 -376 -381	835 819 803 790 779	-8452 -8740 -9016 -9392 -9684	-5900 -6040 -6120 -6336 -7044	7488 7328 7204 6836 6700
2092	89	732	0	17	311	2	91	0	0	0	-384 -386 -388 -388 -379 -363 -337 -303 -261 -218 -191 -203 -263 -348 -418 -461 -481 -494 -507 -514 -506 -483 -463 -458 -463 -471 -482 -489 -495 -502 -511 -517 -523 -527 -529 -531 -532 -535 -537 -541 -543 -542 -541 -542 -545 -545 -543 -537 -529 -525	771 766 763 759 753	-10112 -11348 -10924 -9024 -9104	-7592 -7752 -8276 -8132 -7236	6512 6508 6636 7708 7656
2093	89	684	0	17	311	2	91	0	0	1	-526 -525 -523 -518 -512 -509 -508 -506 -502 -497 -492 -486 -481 -476 -474 -473 -474 -475 -478 -481 -485 -491 -496 -503 -512 -520 -530 -543 -553 -563 -573 -581 -590 -601 -610 -618 -624 -627 -629 -631 -634 -637 -638 -639 -640 -639 -638 -636 -634 -632	744 730 710 686 663	-8712 -7908 -7812 -8064 -8344	-6308 -5796 -5832 -6192 -6660	7840 7716 7616 7528 7216
2094	89	684	0	17	311	2	91	0	0	0	-630 -627 -623 -620 -616 -613 -611 -608 -603 -599 -595 -591 -588 -584 -579 -572 -566 -561 -557 -555 -552 -547 -541 -538 -536 -532 -526 -517 -506 -495 -486 -480 -471 -460 -447 -433 -420 -412 -407 -400 -391 -384 -378 -374 -373 -370 -367 -365 -366 -369	641 624 614 612 614	-8848 -10152 -10916 -11508 -11020	-7208 -7772 -8584 -8220 -7092	7008 6544 6604 6460 7392
2095	89	684	0	17	311	2	91	0	0	0	-374 -381 -387 -393 -397 -399 -403 -407 -410 -414 -418 -420 -419 -418 -417 -417 -418 -420 -421 -418 -410 -395 -371 -338 -295 -244 -198 -176 -198 -267 -352 -415 -452 -470 -477 -476 -468 -447 -417 -392 -378 -367 -360 -358 -360 -358 -356 -355 -354 -353	617 619 618 612 600	-10060 -9380 -8448 -7960 -7876	-6232 -6384 -6172 -5824 -5608	7508 7620 7664 7984 7556
2096	89	664	0	17	311	2	91	0	0	1	-351 -347 -344 -342 -340 -339 -334 -328 -321 -317 -313 -309 -302 -294 -287 -281 -273 -265 -257 -251 -245 -237 -227 -215 -203 -191 -180 -168 -158 -148 -136 -127 -120 -112 -104 -97 -93 -92 -91 -89 -88 -89 -93 -95 -96 -95 -95 -97 -99 -100	585 568 552 540 534	-8260 -8872 -9560 -9980 -10908	-5880 -6164 -6504 -7028 -7540	7476 7160 6944 6868 6564
2097	89	664	0	17	311	2	91	0	0	0	-100 -103 -105 -104 -100 -96 -90 -82 -73 -66 -60 -54 -49 -40 -31 -26 -23 -23 -22 -21 -20 -17 -15 -13 -13 -12 -13 -14 -15 -16 -18 -19 -20 -21 -22 -25 -25 -24 -22 -21 -23 -25 -26 -27 -28 -30 -30 -25 -21 -15	534 539 544 546 544	-11648 -10196 -9108 -9220 -8856	-8672 -8488 -8248 -7528 -6680	6224 7276 7828 7728 7868
2098	89	664	0	17	311	3	91	0	0	0	-9 -8 -10 -12 -11 -12 -15 -20 -26 -30 -31 -31 -32 -35 -41 -44 -46 -49 -51 -53 -54 -56 -57 -55 -55 -56 -54 -54 -54 -53 -51 -49 -47 -45 -42 -36 -19 10 52 101 149 179 176 125 47 -20 -63 -88 -100 -103	538 524 506 485 463	-8344 -7976 -7656 -7960 -8760	-6240 -5876 -5820 -6332 -7088	7760 7748 7684 7376 7028
2099	89	660	0	17	311	3	91	0	0	0	-95 -71 -36 -7 9 17 25 31 35 38 41 45 47 48 51 56 60 63 70 76 80 85 92 99 104 107 113 123 134 143 153 161 168 176 183 186 189 197 207 216 224 233 240 245 255 265 271 276 281 286	446 435 433 437 444	-9564 -11096 -11524 -11048 -10732	-7848 -8560 -8404 -7188 -6616	6972 6652 6696 7684 7712
2100	89	660	0	17	311	3	91	0	0	1	288 290 291 290 290 292 294 295 295 295 293 286 281 282 286 290 296 301 305 311 320 327 334 345 359 374 389 403 416 431 450 470 490 509 525 540 557 573 589 608 626 642 659 677 695 714 732 751 769 784	450 454 452 444 432	-10144 -8376 -7904 -7576 -7736	-6264 -6020 -5772 -5504 -5636	7724 7964 8100 7920 7808
2101	89	660	0	17	311	3	91	0	0	0	795 806 818 832 847 861 871 879 889 900 912 924 936 948 961 974 988 1001 1012 1022 1031 1039 1047 1053 1056 1061 1070 1083 1095 1101 1106 1113 1124 1138 1150 1161 1174 1188 1204 1220 1236 1251 1265 1279 1290 1300 1308 1314 1318 1322	421 413 412 419 432	-9264 -10152 -10016 -10388 -10360	-6492 -6824 -7084 -7548 -8436	7252 7320 6696 6584 7300
2102	89	660	0	17	311	3	91	0	0	0	1328 1338 1354 1380 1414 1451 1482 1488 1451 1370 1273 1191 1130 1092 1071 1061 1062 1072 1083 1083 1069 1053 1038 1017 999 986 975 962 946 931 916 897 880 865 850 838 826 813 796 779 764 749 731 716 706 696 683 671 658 644	449 465 476 482 482	-9624 -9488 -9468 -8904 -8020	-8332 -8424 -7784 -6748 -5724	7564 7444 7888 7616 7896
2103	89	656	0	17	311	3	91	0	0	1	634 625 614 603 592 581 572 565 560 554 544 532 521 511 500 484 464 446 432 419 403 383 362 342 322 303 280 256 234 214 195 178 164 151 140 130 121 109 97 87 82 80 78 73 66 58 55 51 45 35	473 458 440 422 407	-7396 -7384 -7712 -9624 -10424	-5308 -5556 -6100 -7832 -8212	7884 7700 7180 6408 5952
2104	89	656	0	17	311	3	91	0	0	0	22 10 -2 -18 -33 -43 -51 -56 -53 -42 -21 4 20 24 14 -4 -25 -43 -60 -74 -85 -89 -90 -92 -92 -87 -82 -83 -87 -92 -97 -96 -90 -88 -93 -100 -103 -104 -106 -107 -106 -103 -101 -103 -108 -114 -116 -120 -129 -142	396 391 387 382 373	-11552 -11052 -11228 -10368 -9020	-8472 -7396 -7060 -6800 -6356	6112 6964 7040 7668 7444
2105	89	656	0	17	311	3	91	0	0	0	-154 -159 -160 -161 -167 -174 -180 -186 -187 -181 -171 -158 -150 -149 -150 -150 -150 -145 -134 -117 -94 -63 -21 22 42 23 -35 -108 -162 -191 -207 -212 -202 -178 -142 -107 -92 -96 -105 -111 -114 -109 -101 -95 -93 -94 -94 -91 -87 -83	360 341 320 299 281	-8048 -7372 -7572 -8148 -9420	-5956 -5072 -5320 -5912 -6604	7788 7956 7648 7608 7548
2106	89	672	0	17	311	3	91	0	0	2	-81 -81 -81 -79 -74 -66 -61 -61 -56 -49 -46 -43 -39 -34 -27 -22 -22 -25 -23 -17 -9 -3 4 11 18 24 27 26 32 37 36 31 25 17 12 8 4 -1 -5 -8 -12 -19 -27 -35 -43 -50 -57 -66 -75 -82	271 270 278 289 301	-10256 -10580 -8744 -8536 -9404	-6960 -7908 -7536 -8044 -9076	6684 6468 7592 7672 8100
2107	89	672	0	17	311	3	91	0	0	0	-85 -82 -76 -71 -69 -68 -67 -67 -65 -62 -60 -58 -60 -62 -63 -64 -66 -64 -61 -62 -65 -69 -72 -72 -70 -67 -68 -64 -54 -47 -41 -38 -35 -32 -33 -36 -37 -35 -35 -37 -36 -31 -27 -27 -30 -33 -32 -27 -24 -22	310 315 315 313 307	-11332 -10120 -9384 -9200 -7172	-8708 -8324 -7800 -6952 -5836	6908 6928 7084 7256 8568
2108	89	672	0	17	311	3	91	0	0	0	-10 -4 -7 -13 -17 -19 -20 -23 -27 -28 -30 -36 -44 -49 -53 -57 -59 -59 -58 -56 -56 -57 -57 -55 -51 -48 -48 -47 -43 -38 -34 -28 -17 12 56 111 179 242 267 234 141 29 -60 -116 -142 -152 -151 -128 -80 -32	296 281 263 249 245	-7064 -6424 -5964 -10000 -13116	-4652 -3524 -4156 -6544 -8064	8852 8952 8872 7144 6932
2109	89	660	0	17	311	3	91	0	0	1	-4 3 3 0 -4 -7 -9 -9 -8 -6 -4 -5 -7 -6 -3 0 6 9 2 -8 -9 -5 3 8 4 0 -3 -3 0 5 13 23 28 27 27 27 34 44 52 65 80 91 97 95 90 85 84 85 84 81	251 264 283 299 302	-11960 -11812 -10896 -8104 -7296	-8328 -8184 -7080 -5968 -5320	6836 6452 6816 7732 8264
2110	89	660	0	17	311	3	91	0	0	0	73 61 50 42 36 28 18 4 -12 -23 -32 -42 -49 -55 -61 -68 -72 -73 -72 -73 -76 -77 -77 -72 -65 -60 -57 -51 -44 -35 -27 -18 -8 -1 5 11 14 15 11 3 -5 -9 -8 -7 -7 -9 -15 -19 -18 -15	295 278 255 237 228	-6684 -6188 -10736 -14120 -10800	-5140 -5124 -10368 -9332 -10024	8464 8616 7348 6828 7096
2111	89	660	0	17	311	3	91	0	0	0	-15 -15 -15 -17 -18 -16 -15 -12 -2 7 12 19 26 26 24 23 23 24 22 14 3 -6 -10 -14 -18 -22 -26 -30 -38 -48 -52 -50 -48 -45 -43 -47 -54 -56 -54 -54 -54 -53 -47 -29 3 50 110 176 226 228	227 234 242 244 235	-11248 -11336 -8484 -7900 -7188	-9792 -8356 -6412 -5636 -4740	6476 6792 7672 8100 8736
2112	89	644	0	17	311	3	91	0	0	0	165 60 -30 -83 -111 -123 -125 -115 -84 -39 -4 3 -8 -16 -17 -18 -18 -13 -9 -8 -5 1 11 25 38 51 61 70 77 82 83 80 77 75 71 65 64 67 66 64 63 61 66 72 76 81 88 95 99 101	219 197 181 175 179	-6484 -10280 -13664 -12776 -12728	-3792 -6120 -8768 -8056 -8400	8976 7552 6080 6360 6408
2113	89	644	0	17	311	3	91	0	0	1	103 109 111 106 100 88 79 76 74 66 52 37 26 19 16 11 -1 -14 -24 -27 -26 -30 -39 -48 -51 -45 -41 -44 -48 -46 -35 -16 1 9 7 6 13 21 25 26 27 29 35 45 50 46 40 37 37 40	190 203 208 200 181	-10428 -8680 -7488 -6648 -5120	-6840 -6256 -5392 -4812 -4588	6936 7492 8332 8764 8684
2114	89	644	0	17	311	3	91	0	0	0	45 50 52 48 39 31 27 25 26 31 34 38 44 51 61 75 91 105 115 121 125 127 128 127 123 117 110 99 86 73 60 48 40 36 34 30 27 25 27 29 29 29 24 17 13 12 8 4 -1 -5	155 133 122 122 130	-6448 -12968 -11944 -11712 -10564	-6064 -13080 -9420 -10492 -7896	7684 5632 7000 6804 7204
2115	89	644	0	17	311	3	91	0	0	0	-4 10 38 76 127 189 243 265 234 144 37 -44 -95 -129 -150 -160 -155 -125 -79 -44 -33 -33 -35 -39 -44 -47 -48 -47 -43 -37 -34 -39 -42 -40 -37 -36 -34 -31 -27 -22 -20 -20 -17 -12 -6 1 8 16 22 25	144 151 147 134 115	-9076 -7652 -6740 -5908 -7672	-6860 -5604 -4484 -3528 -4916	7720 8028 8572 8880 7768
2116	89	632	0	17	311	3	91	0	0	1	27 35 47 61 76 90 104 121 141 156 164 168 166 162 160 158 151 143 132 119 105 92 78 67 52 40 33 25 17 12 3 -9 -18 -27 -34 -39 -44 -43 -40 -39 -37 -36 -35 -30 -27 -25 -21 -17 -14 -10	101 98 105 123 144	-14156 -12652 -12228 -10096 -8780	-9312 -8660 -8412 -7328 -6460	6328 6844 6292 6888 7744
2117	89	632	0	17	311	3	91	0	0	0	-5 -3 3 12 13 7 3 4 10 18 25 25 21 19 19 19 24 35 50 66 75 81 85 86 82 70 57 51 52 56 53 44 35 25 17 11 9 9 10 9 12 17 21 29 39 47 55 64 67 68	156 156 146 128 115	-7556 -6752 -5192 -5852 -14012	-5632 -4956 -4540 -5476 -12808	8184 8220 9008 7664 6664
2118	89	632	0	17	311	3	91	0	0	0	71 75 78 86 107 142 192 261 337 397 413 360 256 156 85 38 3 -28 -52 -56 -30 9 35 49 57 57 42 25 15 8 3 6 9 7 3 2 2 0 2 5 4 0 0 1 1 4 6 7 13 22	112 119 133 149 155	-13600 -11488 -10672 -8852 -7620	-9152 -9764 -7388 -6440 -5304	6316 6464 7300 7820 8304
2119	91	612	0	17	311	3	91	0	0	1	29 34 40 44 47 51 53 55 63 70 71 70 69 68 71 77 84 93 102 108 106 97 86 76 66 55 44 35 28 23 17 10 6 5 0 -9 -18 -31 -46 -62 -75 -86 -91 -87 -79 -75 -73 -76 -83 -89	147 129 109 98 99	-6028 -5904 -8276 -15168 -14044	-3332 -3484 -5752 -8296 -8000	8904 8728 7068 5196 6484
2120	91	612	0	17	311	3	91	0	0	0	-92 -91 -88 -86 -83 -80 -79 -81 -88 -94 -97 -102 -103 -101 -102 -102 -102 -103 -102 -98 -92 -87 -86 -81 -74 -71 -69 -65 -67 -72 -72 -71 -76 -81 -88 -95 -96 -92 -86 -80 -77 -75 -75 -76 -76 -71 -64 -59 -56 -53	111 130 146 146 134	-11480 -9724 -8076 -6648 -4900	-8444 -6824 -5952 -4900 -4536	6656 7096 7772 8848 9000
2121	91	612	0	17	311	3	91	0	0	0	-48 -44 -41 -36 -21 9 56 117 186 241 258 223 146 66 14 -17 -40 -62 -81 -79 -54 -23 -2 9 13 10 -2 -17 -28 -33 -40 -50 -62 -72 -79 -80 -78 -74 -71 -74 -82 -91 -102 -110 -110 -110 -112 -114 -119 -129	112 94 88 93 108	-5412 -10844 -15084 -11944 -11028	-4828 -10076 -9612 -10312 -7956	8244 7064 6700 6376 6944
2122	91	604	0	17	311	3	91	0	0	1	-139 -144 -144 -143 -144 -147 -150 -151 -150 -145 -138 -132 -125 -119 -114 -110 -108 -111 -117 -128 -139 -146 -148 -150 -152 -160 -174 -192 -211 -226 -239 -250 -258 -257 -256 -263 -278 -295 -313 -329 -345 -361 -375 -388 -398 -410 -425 -436 -445 -457	127 136 130 112 89	-9264 -7988 -6860 -5692 -6608	-6692 -5412 -4484 -3028 -4360	7488 8236 8892 9104 8168
2123	91	604	0	17	311	3	91	0	0	0	-467 -470 -470 -468 -460 -449 -438 -427 -418 -414 -410 -401 -394 -391 -389 -390 -393 -399 -400 -400 -404 -412 -427 -442 -454 -472 -498 -522 -535 -538 -547 -575 -619 -661 -691 -713 -731 -748 -762 -779 -799 -823 -847 -864 -883 -902 -920 -937 -951 -964	73 70 78 95 112	-17496 -13304 -11956 -10300 -8688	-9592 -10132 -9328 -7528 -6312	6660 7036 6488 7196 7840
2124	91	604	0	17	311	3	91	0	0	0	-983 -1004 -1017 -1015 -1001 -976 -932 -878 -844 -854 -922 -1032 -1133 -1189 -1215 -1233 -1252 -1264 -1260 -1243 -1232 -1240 -1265 -1286 -1295 -1302 -1312 -1325 -1337 -1344 -1347 -1346 -1345 -1339 -1329 -1319 -1309 -1297 -1285 -1270 -1247 -1220 -1192 -1165 -1139 -1110 -1079 -1050 -1020 -993	115 103 80 53 37	-7096 -5168 -4944 -6156 -14920	-5096 -4876 -4404 -5740 -14984	8652 8720 8904 8024 6116
2125	91	592	0	17	311	3	91	0	0	1	-970 -948 -923 -900 -884 -873 -867 -857 -839 -818 -799 -782 -766 -745 -727 -721 -723 -727 -732 -734 -740 -750 -766 -787 -803 -817 -832 -847 -863 -883 -900 -913 -924 -934 -943 -954 -961 -960 -959 -965 -973 -979 -982 -980 -971 -962 -955 -946 -936 -924	32 40 53 64 62	-12592 -9952 -8116 -6856 -6032	-11472 -7180 -5880 -4924 -3168	6128 7364 8068 8424 9068
2126	91	592	0	17	311	3	91	0	0	0	-910 -896 -886 -884 -885 -880 -872 -865 -856 -845 -828 -806 -788 -775 -758 -734 -713 -700 -691 -682 -671 -662 -652 -644 -631 -608 -575 -540 -512 -490 -473 -462 -454 -445 -435 -421 -402 -381 -365 -355 -343 -331 -318 -305 -299 -291 -279 -263 -249 -233	47 24 6 1 9	-5672 -9336 -15380 -13468 -10800	-3488 -6148 -8000 -9304 -7992	8560 6944 7756 5928 6756
2127	91	592	0	17	311	3	91	0	0	0	-211 -179 -131 -70 -7 32 29 -24 -102 -161 -184 -187 -198 -216 -222 -207 -172 -138 -129 -138 -142 -138 -133 -130 -130 -129 -123 -114 -107 -102 -98 -94 -89 -82 -75 -63 -47 -29 -19 -17 -17 -14 -7 3 11 20 30 43 59 78	28 51 63 59 43	-9064 -7304 -5164 -4760 -5768	-6640 -5256 -4356 -4552 -5052	7448 8292 8864 8832 8036
2128	91	584	0	17	311	3	91	0	0	1	108 123 140 156 171 188 207 229 257 286 307 320 329 337 344 347 351 354 355 354 353 349 342 334 327 321 316 310 307 307 306 309 316 324 328 324 320 320 325 340 350 345 333 325 327 330 329 329 329 327	24 15 19 36 58	-13072 -15892 -11820 -10624 -8548	-14224 -9080 -9936 -7248 -6040	7584 6200 6544 7568 8056
2129	93	584	0	17	311	3	91	0	0	0	326 324 319 315 318 326 333 340 347 350 348 346 347 350 357 356 349 345 344 345 342 334 326 323 323 315 291 264 260 273 293 311 325 335 343 353 357 354 350 350 353 359 378 411 458 522 600 675 715 701	78 82 72 53 37	-7008 -5956 -6024 -7548 -16680	-4928 -3088 -3500 -4860 -9740	8424 9076 8744 7376 5592
2130	93	580	0	17	311	3	91	0	0	0	628 532 465 433 420 407 390 388 407 443 469 473 466 460 456 450 445 441 435 432 434 432 427 419 412 412 416 415 405 393 385 384 387 385 378 373 376 380 380 379 381 382 379 376 374 371 368 365 367 366	34 44 65 90 105	-13968 -11364 -9464 -7520 -6060	-9140 -8480 -6528 -5360 -4404	6212 6624 7548 8344 8780
2131	93	580	0	17	311	3	91	0	0	1	359 355 354 348 344 341 331 317 309 308 306 304 299 284 260 234 206 180 165 166 172 168 153 134 122 122 126 127 125 129 143 158 168 176 187 199 207 210 213 216 219 223 224 225 226 229 228 228 234 245	103 88 69 58 61	-4776 -5500 -11144 -15560 -11828	-4392 -4564 -11076 -10556 -9956	8912 8464 7052 6440 6168
2132	93	580	0	17	311	3	91	0	0	0	259 270 269 262 258 257 258 256 243 230 220 211 204 193 177 160 148 139 128 118 112 108 102 90 76 69 68 72 77 73 64 57 47 41 54 82 124 185 255 308 320 276 173 58 -26 -73 -88 -86 -75 -60	75 94 110 110 96	-10548 -8420 -7360 -5812 -6056	-7380 -6036 -4784 -3004 -3288	7288 7908 8440 9192 9028
2133	93	564	0	17	311	3	91	0	0	1	-50 -39 -19 4 24 33 27 17 13 15 16 12 11 19 29 40 55 69 79 84 91 101 107 108 106 108 123 148 166 170 163 155 152 160 169 171 173 178 176 166 158 155 158 159 158 152 143 137 135 124	72 53 47 53 70	-7764 -16752 -14340 -11240 -9248	-5068 -9256 -9336 -8376 -6620	7860 5460 5992 6692 7428
2134	93	564	0	17	311	3	91	0	0	0	109 98 87 73 60 49 42 36 28 16 -7 -33 -51 -64 -74 -87 -100 -110 -117 -123 -127 -130 -134 -134 -131 -131 -132 -131 -134 -141 -146 -144 -137 -134 -132 -125 -126 -144 -167 -185 -183 -161 -134 -115 -107 -107 -108 -105 -101 -92	89 97 88 68 45	-7188 -5676 -5000 -5824 -11464	-5568 -4264 -4560 -4696 -12056	8764 8728 8852 8072 7740
2135	93	564	0	17	311	3	91	0	0	0	-80 -66 -50 -31 -9 5 9 11 15 21 29 35 36 36 38 41 49 63 78 85 89 96 104 113 128 149 176 218 282 352 406 424 379 276 171 94 33 -15 -50 -64 -50 -8 43 76 86 89 94 95 92 95	32 34 49 68 84	-15288 -12040 -10636 -8400 -7124	-10576 -10088 -7200 -5624 -4712	6604 6216 7600 7968 8476
2136	93	564	0	17	311	3	91	0	0	1	101 102 101 100 97 94 99 113 128 135 136 137 133 123 107 95 92 95 116 151 181 198 209 226 252 277 296 304 306 314 327 338 345 360 384 404 418 429 442 454 458 449 429 411 403 405 407 409 412 413	84 70 49 35 35	-5636 -6048 -7852 -16076 -16264	-2844 -3528 -5092 -9500 -8820	9232 8732 7344 6240 6288
2137	93	564	0	17	311	3	91	0	0	0	416 420 418 412 410 410 409 406 403 404 406 408 404 404 407 405 402 403 404 402 397 394 391 391 392 390 388 392 404 415 417 413 407 403 403 401 396 396 389 375 367 364 356 347 341 337 337 336 335 337	48 72 97 109 106	-11372 -9280 -6892 -5668 -5144	-8272 -6716 -5712 -4356 -4840	6896 7620 8356 8892 8916
2138	93	564	0	17	311	3	91	0	0	0	340 335 320 299 283 280 288 299 303 295 282 276 288 318 361 414 473 534 579 578 517 432 373 343 327 318 315 322 347 386 421 442 454 458 455 449 449 453 456 457 460 463 470 479 484 485 486 488 487 486	91 72 63 69 86	-5596 -6996 -11080 -12488 -11224	-4460 -7700 -12516 -11076 -8444	8248 6924 6408 6064 6844
2139	99	556	0	17	311	3	91	0	0	1	481 471 464 464 461 453 445 437 431 425 421 421 422 422 418 415 415 418 416 410 402 395 388 377 361 349 345 339 325 308 294 285 280 272 257 228 193 165 150 154 169 186 204 216 219 218 209 192 180 175	109 128 130 116 91	-9172 -7428 -6132 -5652 -6412	-6324 -4872 -4056 -2920 -3900	7940 8384 8596 9164 8304
2140	99	556	0	17	311	3	91	0	0	0	171 164 157 150 146 152 167 182 194 204 216 230 244 251 252 255 254 249 247 252 260 266 267 258 245 242 247 253 251 238 221 201 183 171 164 160 151 138 127 114 101 92 86 82 77 67 50 36 33 42	67 58 64 84 107	-15756 -13992 -12380 -9936 -7836	-9044 -11672 -9536 -7256 -6252	7064 8188 6092 7216 8148
2141	99	556	0	17	311	3	91	0	0	0	51 60 82 128 195 249 256 203 109 24 -25 -49 -59 -71 -75 -60 -30 1 12 -3 -29 -53 -71 -85 -99 -113 -129 -138 -137 -130 -119 -114 -119 -131 -146 -158 -158 -148 -138 -132 -132 -128 -117 -104 -87 -68 -48 -24 2 19	120 113 91 62 39	-6276 -4684 -5088 -6500 -13824	-4604 -4744 -4332 -6080 -14416	8824 8884 8496 7320 7652
2142	99	456	0	17	311	3	91	0	0	1	28 32 34 41 51 60 66 67 62 57 55 56 56 56 55 52 44 34 27 19 9 -5 -24 -47 -66 -77 -90 -104 -115 -127 -143 -159 -171 -179 -181 -181 -180 -183 -194 -207 -213 -217 -216 -213 -219 -229 -240 -244 -238 -229	32 38 53 67 67	-13064 -11620 -9544 -7728 -6288	-12668 -8396 -6672 -5260 -4348	6640 6868 8088 8368 8568
2143	99	456	0	17	311	3	91	0	0	0	-222 -223 -230 -240 -256 -281 -305 -317 -319 -322 -328 -339 -339 -326 -316 -319 -337 -360 -377 -387 -396 -406 -416 -423 -420 -415 -406 -390 -375 -363 -349 -329 -306 -278 -240 -196 -148 -92 -28 31 67 70 32 -39 -105 -144 -157 -158 -153 -148	49 20 -9 -23 -22	-5488 -5928 -12708 -15248 -13288	-2872 -3480 -7104 -12440 -9744	9268 8552 7812 7256 5612
2144	99	632	0	17	311	3	91	0	0	0	-144 -139 -140 -157 -181 -201 -212 -223 -240 -262 -280 -295 -311 -322 -330 -339 -351 -364 -373 -385 -396 -402 -406 -416 -428 -439 -452 -463 -468 -467 -465 -466 -474 -485 -492 -490 -476 -457 -449 -458 -472 -477 -471 -453 -427 -401 -384 -381 -384 -384	-7 15 29 25 7	-10456 -8192 -6236 -4912 -5016	-7408 -6336 -4760 -4760 -4588	7340 8008 8976 8840 8632
2145	99	632	0	17	311	3	91	0	0	2	-378 -364 -342 -318 -296 -276 -262 -254 -247 -231 -203 -169 -134 -98 -60 -19 28 80 138 199 264 328 391 452 505 554 603 644 679 708 725 735 747 761 780 807 837 858 874 886 895 902 907 906 900 896 895 897 899 894	-17 -35 -36 -21 5	-5800 -11668 -16580 -12276 -10480	-4864 -12556 -10192 -10184 -7220	8024 7748 6296 6340 7444
2146	99	632	0	17	311	3	91	0	0	0	878 861 852 844 837 828 817 806 799 794 789 781 770 764 761 755 748 742 732 732 752 789 842 906 962 982 936 825 705 618 562 538 541 556 573 589 587 559 536 544 560 568 570 566 554 540 521 500 484 478	33 52 53 42 27	-8184 -6620 -5828 -5928 -7324	-5916 -4600 -2596 -3260 -4696	8184 8808 9252 9040 7464
2147	99	532	0	17	311	3	91	0	0	1	476 476 474 473 474 473 464 448 432 415 398 384 374 370 372 366 350 333 322 321 328 335 325 302 283 266 258 259 255 245 233 221 210 201 191 177 156 136 123 119 114 100 82 68 60 51 44 39 30 13	22 30 50 77 98	-18068 -15400 -11232 -9112 -6988	-10356 -9576 -8748 -6728 -5636	5300 5548 6776 7548 8300
2148	99	532	0	17	311	3	91	0	0	0	-5 -7 -3 1 -8 -24 -33 -35 -32 -24 -14 -13 -23 -35 -41 -37 -31 -26 -20 -13 -6 -1 -4 -20 -39 -45 -42 -39 -35 -37 -51 -65 -73 -78 -78 -76 -71 -64 -55 -45 -39 -42 -45 -45 -44 -46 -47 -47 -45 -39	103 93 73 52 45	-5884 -4548 -5284 -6648 -13872	-4520 -4812 -4744 -6568 -14680	9124 8888 8480 6976 7480
2149	104	532	0	17	311	3	91	0	0	0	-22 8 51 110 174 222 232 191 105 12 -51 -82 -100 -111 -117 -124 -115 -96 -88 -89 -89 -92 -94 -93 -90 -91 -97 -102 -102 -100 -98 -100 -103 -107 -113 -114 -109 -103 -94 -91 -99 -109 -115 -113 -98 -77 -62 -58 -61 -65	52 68 86 97 90	-12884 -11464 -9204 -7416 -5768	-11280 -8352 -6548 -5088 -2988	6104 6872 7880 8332 9148
2150	104	528	0	17	311	3	91	0	0	1	-67 -73 -79 -81 -80 -64 -37 -24 -30 -43 -53 -62 -64 -47 -22 -2 8 6 -4 -9 -1 9 13 14 15 14 4 -16 -35 -51 -63 -71 -71 -67 -60 -54 -53 -54 -54 -55 -58 -56 -50 -49 -48 -49 -51 -48 -41 -40	69 40 19 13 20	-5564 -6084 -16860 -13984 -12288	-2540 -3796 -8956 -12988 -9364	9176 8776 6900 8012 6200
2151	104	528	0	17	311	3	91	0	0	0	-47 -52 -45 -40 -48 -62 -75 -83 -80 -72 -72 -77 -80 -79 -77 -80 -85 -85 -82 -76 -71 -73 -80 -88 -91 -83 -73 -75 -83 -88 -77 -42 9 65 126 184 215 191 117 34 -13 -23 -27 -42 -54 -54 -44 -21 -3 -5	38 56 59 46 24	-9632 -7380 -6120 -4888 -4988	-7068 -6056 -4732 -4552 -4684	7260 8116 8812 8852 8568
2152	104	524	0	17	311	3	91	0	0	1	-10 -14 -21 -27 -21 -7 5 15 28 41 48 49 50 51 50 49 52 56 52 43 33 28 31 36 37 30 24 28 39 53 57 53 50 56 64 67 64 56 41 28 26 30 29 25 17 6 0 2 3 -6	0 -10 -8 6 22	-6520 -13204 -12636 -11564 -9296	-6384 -13940 -11512 -8204 -6320	7388 7988 5892 6976 7968
2153	104	524	0	17	311	3	91	0	0	0	-16 -25 -35 -40 -40 -38 -37 -38 -41 -47 -51 -53 -57 -62 -59 -52 -47 -50 -68 -87 -84 -62 -35 -15 -7 -6 -3 -2 -8 -11 1 22 40 52 55 52 48 42 39 41 46 51 58 66 76 85 88 86 78 61	32 25 6 -20 -39	-7440 -6020 -6020 -6108 -13112	-4988 -3396 -2944 -3764 -7500	8396 9080 9308 8308 7624
2154	104	524	0	17	311	3	91	0	0	0	40 20 6 5 14 22 24 27 30 36 53 81 117 166 223 262 264 208 113 36 -6 -18 -19 -29 -45 -51 -36 -18 -15 -25 -40 -57 -69 -77 -81 -88 -104 -125 -144 -156 -171 -193 -221 -254 -284 -306 -325 -346 -372 -398	-43 -34 -15 5 10	-13160 -12984 -9984 -7796 -6068	-13000 -9656 -7452 -6472 -4820	7032 5784 7188 8172 8868
2155	104	516	0	17	311	3	91	0	0	1	-421 -449 -479 -505 -527 -551 -574 -599 -629 -657 -679 -698 -714 -730 -748 -773 -802 -833 -862 -891 -921 -945 -962 -973 -981 -991 -1003 -1015 -1022 -1018 -1006 -992 -979 -964 -942 -916 -891 -870 -858 -854 -856 -859 -863 -872 -880 -888 -897 -902 -904 -905	-1 -25 -52 -66 -64	-5000 -4952 -5688 -14964 -13292	-4560 -4732 -4900 -14208 -12140	8920 8648 7980 8120 6008
2156	104	516	0	17	311	3	91	0	0	0	-904 -903 -898 -892 -886 -883 -885 -891 -898 -907 -921 -942 -968 -991 -1009 -1023 -1035 -1049 -1065 -1080 -1096 -1118 -1142 -1160 -1169 -1172 -1177 -1188 -1198 -1205 -1207 -1202 -1196 -1195 -1199 -1206 -1212 -1210 -1193 -1158 -1107 -1049 -995 -956 -952 -1005 -1099 -1179 -1210 -1219	-50 -29 -13 -15 -32	-12064 -10144 -8012 -6500 -5712	-9440 -6900 -5384 -4400 -3344	6680 7360 8288 8824 8484
2157	104	516	0	17	311	3	91	0	0	0	-1226 -1220 -1197 -1155 -1094 -1040 -1018 -1022 -1024 -1025 -1033 -1036 -1023 -1001 -977 -952 -926 -894 -858 -824 -787 -756 -733 -721 -715 -706 -695 -680 -658 -638 -624 -609 -595 -584 -577 -577 -576 -566 -553 -541 -533 -533 -532 -526 -525 -525 -525 -525 -522 -519	-58 -79 -84 -74 -52	-8104 -18524 -14072 -10916 -8688	-5352 -9188 -9572 -8072 -6628	7328 5992 5808 7036 7840
2158	104	516	0	17	311	3	91	0	0	1	-521 -530 -544 -554 -559 -563 -567 -568 -567 -576 -592 -608 -622 -629 -631 -628 -625 -629 -637 -643 -640 -625 -613 -612 -619 -626 -625 -615 -601 -586 -569 -555 -547 -542 -531 -514 -497 -494 -505 -515 -517 -509 -493 -471 -449 -432 -421 -415 -405 -389	-27 -13 -16 -32 -53	-6512 -5044 -4956 -5504 -10140	-5292 -4692 -4568 -4516 -11372	8736 8872 8896 8236 7268
2159	109	516	0	17	311	3	91	0	0	0	-367 -341 -316 -295 -275 -251 -225 -203 -184 -168 -156 -146 -134 -121 -105 -81 -41 16 82 140 177 177 127 52 -10 -50 -73 -86 -92 -98 -98 -81 -62 -53 -50 -51 -61 -75 -77 -70 -69 -78 -89 -94 -93 -87 -81 -82 -87 -92	-64 -60 -43 -19 1	-16696 -12532 -10576 -8448 -6824	-11020 -10316 -7528 -5836 -4372	6184 6392 7196 8264 8940
2160	109	500	0	17	311	3	91	0	0	1	-97 -104 -107 -102 -93 -89 -89 -91 -90 -81 -70 -68 -79 -98 -106 -90 -67 -51 -45 -45 -41 -28 -14 -10 -11 -11 -10 -15 -22 -26 -27 -26 -25 -25 -25 -21 -11 1 13 25 33 40 49 57 60 55 52 54 54 57	5 -7 -29 -50 -55	-6120 -5924 -6920 -17096 -15920	-3024 -3288 -4580 -10192 -8984	9236 9048 7852 6632 5816
2161	109	500	0	17	311	3	91	0	0	0	64 72 74 68 60 56 60 70 79 80 73 68 74 81 80 79 70 53 39 38 38 33 24 10 -4 -11 -10 -15 -23 -30 -39 -51 -61 -61 -58 -58 -58 -63 -73 -77 -70 -53 -30 8 58 103 118 88 19 -58	-46 -23 4 21 20	-11640 -9092 -7036 -5800 -4676	-8864 -6936 -5856 -4380 -4792	6612 7376 8436 9104 8816
2162	109	508	0	17	311	3	91	0	0	0	-105 -123 -129 -140 -146 -136 -112 -88 -78 -87 -99 -101 -102 -106 -109 -105 -97 -89 -78 -72 -70 -63 -46 -26 -7 12 30 47 61 67 70 72 75 80 88 94 98 102 106 107 104 105 111 116 119 120 119 116 109 104	6 -15 -28 -26 -12	-5532 -7400 -12056 -12624 -11128	-4648 -7864 -12548 -11228 -8148	8856 6748 7304 6080 6896
2163	109	508	0	17	311	3	91	0	0	1	103 103 105 105 100 91 80 71 60 52 48 43 32 21 8 -5 -14 -16 -22 -30 -31 -33 -46 -61 -73 -83 -88 -85 -80 -78 -74 -64 -60 -68 -84 -114 -140 -142 -141 -158 -178 -169 -139 -96 -51 -32 -37 -44 -43 -40	10 29 34 21 -3	-9300 -7056 -6040 -5980 -6604	-6092 -4888 -3024 -3196 -4624	8052 8520 8916 9080 7688
2164	109	492	0	17	311	3	91	0	0	0	-44 -48 -43 -40 -39 -27 -5 17 37 57 78 96 113 128 140 153 177 217 270 314 327 306 253 185 134 106 95 99 113 126 142 161 164 150 137 129 124 123 124 129 133 125 112 103 102 109 113 105 96 94	-25 -32 -25 -4 22	-17076 -15000 -12124 -9728 -7480	-9992 -10188 -8692 -7188 -5956	7044 6548 6424 7224 8040
2165	109	492	0	17	311	3	91	0	0	1	98 100 96 91 88 88 86 84 89 90 86 80 77 80 89 97 101 105 118 127 122 112 110 115 125 134 134 131 132 136 138 135 133 136 143 149 153 158 165 175 189 208 231 259 289 313 329 339 344 350	40 40 27 9 -1	-6120 -4624 -5564 -8700 -11576	-4888 -4892 -4944 -8628 -11320	9036 8972 8660 8240 6340
2166	109	492	0	17	311	3	91	0	0	0	358 365 373 380 385 390 394 396 400 404 416 430 443 456 465 465 465 463 461 461 463 464 463 458 446 429 417 410 404 399 394 387 383 384 380 371 366 370 377 386 395 408 429 463 516 579 623 623 565 466	2 17 38 57 62	-12148 -10616 -8848 -7040 -6036	-10820 -7848 -6104 -4812 -3524	5676 6512 7472 8380 9132
2167	109	508	0	17	311	3	91	0	0	0	375 314 286 286 304 335 372 406 422 420 411 401 394 392 391 392 394 396 401 408 415 424 432 439 450 466 486 506 520 535 553 574 594 604 603 598 594 592 594 598 601 601 601 600 599 599 597 592 586 579	51 29 11 6 15	-6172 -6548 -18192 -15220 -12436	-3128 -4316 -10560 -10256 -8864	9228 8664 6476 6380 6224
2168	109	508	0	17	311	3	91	0	0	1	572 563 558 556 546 534 524 512 500 491 484 477 468 460 451 440 430 426 425 421 411 403 404 408 399 382 366 355 356 365 372 371 367 366 367 366 365 369 364 347 330 318 308 303 301 294 284 272 260 251	34 59 75 75 63	-10068 -7488 -6204 -4852 -5148	-7344 -6336 -4696 -4976 -4732	6892 7968 9032 8668 8632
2169	115	508	0	17	311	3	91	0	0	0	239 226 219 217 218 223 230 233 234 235 236 237 246 272 312 365 429 493 535 535 481 387 291 216 168 150 156 175 202 228 238 232 231 233 231 232 231 225 217 211 205 199 196 189 181 177 174 170 165 157	46 34 35 49 69	-5880 -14776 -12536 -11928 -9956	-5488 -14088 -11864 -8836 -6872	8708 6024 6180 6608 7160
2170	115	492	0	17	311	3	91	0	0	1	147 141 141 143 146 146 137 124 117 116 116 117 126 138 142 141 131 115 103 99 102 112 123 127 122 114 108 108 105 94 80 61 48 53 62 68 73 73 69 66 64 60 53 49 50 50 51 58 65 71	88 94 83 58 33	-8120 -6684 -6220 -5984 -12908	-5572 -4464 -2940 -3696 -7468	8084 8828 9420 8788 7788
2171	115	492	0	17	311	3	91	0	0	0	79 89 99 109 117 118 115 112 107 101 99 101 101 96 91 87 89 93 91 80 66 52 45 40 36 33 27 20 19 17 16 16 12 2 -7 -12 -11 -3 18 51 95 148 201 223 194 121 33 -36 -85 -113	19 20 35 57 73	-14888 -13620 -10792 -8380 -6656	-11192 -9248 -7872 -6692 -5168	6872 6108 7080 7688 8568
2172	115	500	0	17	311	3	91	0	0	0	-118 -106 -79 -43 -18 -17 -31 -46 -62 -75 -86 -92 -95 -100 -103 -102 -103 -109 -116 -119 -117 -112 -111 -120 -128 -128 -120 -109 -101 -98 -95 -85 -72 -60 -47 -33 -18 -3 8 18 31 43 47 44 36 30 30 29 28 29	71 53 26 1 -10	-4884 -4928 -5592 -13616 -15032	-4768 -4908 -4860 -13356 -10700	8972 8612 8152 7732 6884
2173	115	500	0	17	311	3	91	0	0	1	26 24 20 10 0 -5 -9 -12 -15 -17 -19 -25 -38 -52 -59 -65 -69 -76 -90 -100 -106 -111 -116 -124 -129 -128 -127 -128 -130 -132 -133 -130 -125 -129 -140 -154 -165 -172 -176 -180 -186 -198 -209 -213 -214 -214 -214 -220 -233 -245	-7 6 22 28 18	-12396 -10536 -8628 -6500 -6344	-9924 -7272 -5760 -4516 -2940	6248 7196 8076 8608 9204
2174	115	500	0	17	311	3	91	0	0	0	-254 -259 -260 -260 -267 -281 -296 -301 -292 -266 -215 -148 -72 11 69 76 30 -52 -121 -152 -151 -133 -112 -92 -68 -43 -30 -38 -59 -77 -85 -92 -96 -91 -86 -89 -98 -104 -110 -109 -99 -92 -93 -98 -105 -108 -104 -99 -102 -112	-4 -30 -43 -40 -23	-5780 -8588 -14000 -14644 -11364	-3308 -5128 -9036 -9076 -8084	8980 7620 7000 5632 6372
2175	115	488	0	17	311	3	91	0	0	1	-126 -138 -142 -141 -142 -150 -156 -158 -153 -147 -148 -157 -165 -170 -173 -175 -176 -175 -180 -191 -204 -217 -227 -231 -233 -240 -251 -263 -274 -282 -285 -288 -290 -293 -304 -322 -338 -351 -358 -358 -360 -369 -377 -382 -383 -381 -383 -386 -384 -376	3 25 31 19 -5	-9164 -6948 -6008 -5076 -5568	-6716 -5696 -4928 -4840 -4652	7176 8156 9124 8812 8484
2176	115	488	0	17	311	3	91	0	0	0	-365 -349 -333 -320 -303 -285 -271 -259 -246 -228 -209 -192 -176 -166 -156 -145 -137 -136 -145 -154 -155 -154 -147 -133 -122 -111 -101 -94 -94 -100 -102 -94 -84 -68 -38 7 61 96 82 4 -113 -214 -285 -334 -363 -379 -381 -361 -325 -301	-27 -36 -29 -12 8	-10424 -16636 -12672 -10404 -8572	-11180 -11484 -9752 -7192 -5716	7824 6336 6488 7260 7860
2177	115	484	5	17	311	3	91	0	0	1	-304 -325 -347 -366 -384 -398 -409 -416 -423 -430 -439 -450 -460 -464 -463 -462 -465 -468 -471 -483 -504 -526 -544 -546 -524 -490 -463 -454 -464 -480 -482 -471 -457 -442 -424 -406 -390 -375 -364 -357 -347 -328 -306 -283 -261 -242 -230 -226 -225 -224	18 9 -15 -46 -67	-6884 -5852 -5748 -6380 -19308	-4608 -2912 -3416 -4392 -9840	8424 9088 8612 7968 6272
2178	115	484	5	17	311	3	91	0	0	0	-224 -224 -224 -221 -214 -208 -209 -215 -224 -235 -243 -246 -246 -242 -232 -224 -220 -221 -229 -237 -238 -237 -235 -234 -234 -235 -235 -234 -240 -255 -268 -275 -276 -277 -285 -299 -313 -325 -332 -336 -340 -341 -340 -341 -345 -352 -358 -362 -363 -362	-72 -63 -42 -22 -16	-14916 -12220 -9892 -7392 -6036	-8752 -9088 -7276 -6124 -4484	6396 6376 7356 7904 8824
2179	119	484	5	17	311	3	91	0	0	0	-361 -356 -336 -299 -249 -182 -102 -36 -13 -53 -152 -257 -321 -351 -368 -368 -348 -315 -276 -248 -256 -285 -297 -292 -280 -265 -250 -234 -217 -199 -177 -154 -133 -113 -89 -69 -56 -47 -40 -32 -25 -18 -10 -5 -4 -2 5 20 44 67	-26 -46 -69 -78 -73	-4904 -4980 -6680 -13148 -12668	-4868 -4468 -6532 -13572 -11016	8856 8440 7268 7480 5980
2180	119	488	5	17	311	3	91	0	0	1	81 85 83 80 84 94 105 111 109 104 95 89 89 92 92 89 86 82 82 80 71 61 57 63 72 73 72 77 85 91 91 83 79 86 99 107 104 94 88 92 104 118 117 100 91 106 134 159 169 162	-56 -35 -18 -17 -30	-11212 -9296 -7516 -5828 -5656	-8300 -6388 -5096 -3012 -3220	6896 7932 8356 9124 8896
2181	119	488	5	17	311	3	91	0	0	0	158 168 184 189 180 168 157 151 154 165 178 190 197 198 207 227 248 261 265 265 269 282 303 333 375 433 496 547 573 566 514 442 390 369 367 376 379 372 370 377 374 354 325 295 274 264 260 262 259 246	-49 -61 -58 -42 -17	-6420 -17924 -13452 -12000 -9576	-4124 -9532 -11964 -9088 -7340	7960 6296 6976 6164 7016
2182	119	480	5	17	311	3	91	0	0	1	235 228 225 227 231 231 227 220 214 205 193 187 187 189 193 194 192 187 180 177 177 180 186 189 190 183 170 163 162 164 173 183 185 176 160 147 142 144 153 165 173 178 183 190 199 217 243 266 280 288	8 20 16 1 -13	-7668 -6120 -5436 -5052 -7492	-6140 -4704 -4936 -4544 -7644	7976 8908 8916 8980 7180
2183	119	480	5	17	311	3	91	0	0	0	301 319 338 351 359 360 357 353 349 352 360 367 369 369 372 377 385 395 400 403 408 411 409 403 390 377 371 372 373 368 354 340 332 329 326 320 314 303 296 293 290 288 288 297 325 379 446 511 549 538	-14 -1 23 52 73	-12488 -12320 -11192 -9200 -7692	-11908 -11388 -8652 -6916 -5060	6564 6116 6608 7368 8628
2184	119	480	5	17	311	3	91	0	0	0	470 365 270 201 156 138 138 152 183 226 249 240 218 197 178 161 142 130 132 137 142 144 144 146 151 155 152 150 158 173 189 208 227 243 258 274 290 302 306 301 288 279 277 277 277 280 283 287 286 280	75 63 43 30 29	-6240 -6588 -7124 -15912 -13988	-4060 -3404 -4324 -8928 -10836	9116 9012 8024 6832 7300
2185	119	480	5	17	311	3	91	0	0	1	274 270 266 263 258 250 242 238 239 236 222 202 188 181 175 170 160 149 140 132 124 110 96 90 88 89 96 106 105 91 73 62 63 67 63 51 36 25 22 18 13 7 2 -5 -16 -30 -44 -56 -65 -68	42 64 84 90 79	-12376 -10308 -8036 -6460 -4796	-9300 -7512 -6308 -4968 -4540	6336 7048 8176 9008 8524
2186	119	480	5	17	311	3	91	0	0	0	-67 -66 -65 -60 -60 -71 -79 -80 -76 -64 -49 -33 -8 39 103 170 228 254 237 189 143 110 87 74 69 69 81 106 123 120 110 104 97 90 85 82 81 80 80 82 83 79 72 65 64 65 62 55 49 44	57 34 24 30 48	-5100 -6524 -13484 -11908 -11584	-4748 -6308 -11232 -11912 -9004	8864 8724 7972 6292 6872
2187	119	480	5	17	311	3	91	0	0	1	43 42 37 35 33 26 19 12 5 2 5 5 -1 -9 -17 -22 -24 -25 -28 -32 -37 -43 -59 -81 -94 -91 -81 -77 -80 -85 -87 -87 -92 -102 -113 -119 -120 -126 -140 -151 -147 -135 -126 -116 -114 -118 -117 -110 -105 -102	70 86 82 62 34	-9948 -8188 -6648 -5808 -6108	-7052 -5192 -4224 -2748 -3924	7520 8480 9064 9216 8536
2188	119	480	5	17	311	3	91	0	0	0	-80 -62 -39 -18 -2 6 7 7 9 10 6 -1 -7 -12 -11 -7 -7 -12 -14 -13 -13 -17 -22 -24 -24 -24 -26 -31 -38 -38 -28 -12 15 59 105 131 126 78 -13 -104 -159 -187 -200 -203 -200 -185 -154 -132 -146 -184	4 12 30 48 51	-12648 -10068 -8052 -6188 -4880	-9144 -7492 -6036 -4720 -4700	6456 7068 8272 9156 9020
2189	124	468	5	17	311	3	91	0	0	1	-219 -237 -247 -258 -267 -274 -283 -292 -303 -312 -317 -322 -329 -336 -346 -358 -370 -384 -398 -407 -413 -418 -424 -426 -421 -414 -409 -408 -408 -406 -403 -397 -388 -378 -365 -345 -318 -286 -255 -223 -190 -162 -141 -126 -117 -110 -102 -94 -88 -86	35 6 -24 -40 -42	-5368 -6328 -14376 -12692 -11540	-4792 -5796 -13776 -12420 -8504	8748 8048 6348 7016 6928
2190	124	468	5	17	311	3	91	0	0	0	-89 -88 -82 -73 -61 -49 -45 -41 -36 -32 -31 -37 -47 -55 -56 -55 -52 -50 -54 -64 -70 -76 -86 -96 -105 -114 -123 -131 -138 -149 -161 -174 -189 -202 -211 -219 -227 -231 -232 -235 -239 -243 -243 -235 -229 -231 -239 -248 -251 -235	-30 -14 -3 -9 -29	-9472 -7744 -6388 -5712 -6356	-6772 -5060 -4144 -2864 -4048	7684 8060 8888 9172 8456
2191	124	468	5	17	311	3	91	0	0	0	-192 -127 -44 35 70 39 -57 -174 -258 -303 -315 -304 -287 -262 -221 -178 -160 -166 -176 -178 -169 -149 -114 -72 -36 -6 16 31 44 61 82 105 123 138 150 159 161 158 159 161 162 166 168 170 174 175 168 160 163 173	-55 -71 -74 -63 -42	-14264 -13324 -12568 -10204 -7716	-7572 -12144 -9424 -7784 -6444	7432 5956 5668 6976 8112
2192	124	480	5	17	311	3	91	0	0	1	176 170 156 144 141 138 132 121 111 101 88 70 53 41 30 19 1 -20 -36 -46 -49 -49 -53 -65 -81 -90 -91 -91 -90 -92 -98 -105 -109 -109 -104 -94 -87 -90 -101 -113 -119 -121 -123 -122 -118 -115 -112 -109 -110 -116	-22 -16 -25 -43 -61	-6004 -5524 -4892 -5684 -16028	-4692 -4256 -4548 -4900 -14200	8768 8684 8648 8024 7748
2193	124	480	5	17	311	3	91	0	0	0	-118 -115 -110 -103 -91 -74 -50 -21 10 38 69 102 135 165 187 207 233 268 315 380 465 551 608 618 566 471 388 342 329 340 353 350 348 357 365 358 338 308 285 276 279 285 280 264 252 250 257 262 261 253	-65 -55 -32 -6 13	-14536 -11816 -10012 -7788 -6520	-11532 -9120 -6616 -4980 -4432	6372 6448 7824 8132 8736
2194	124	480	5	17	311	3	91	0	0	0	248 250 251 249 249 252 251 248 246 244 247 255 265 274 284 287 284 276 261 245 233 228 234 246 256 267 283 302 312 312 312 318 323 320 312 309 315 329 341 349 362 385 409 425 439 458 483 500 504 497	14 1 -19 -32 -30	-6004 -5956 -10928 -15780 -15916	-2808 -3472 -6416 -9376 -8336	9124 8584 7256 8304 5624
2195	124	480	5	17	311	3	91	0	0	0	489 493 504 515 522 523 522 523 520 511 504 498 488 474 461 448 437 428 418 405 393 381 364 346 331 320 312 303 295 289 285 282 275 266 263 278 307 340 382 432 471 476 429 335 240 184 156 140 134 147	-15 9 32 41 33	-10240 -8368 -6396 -5500 -5040	-7512 -6296 -4880 -3984 -4896	7120 7848 8848 8704 9092
2196	124	944	5	17	311	3	91	0	0	2	183 231 262 249 203 156 127 111 107 105 96 82 71 65 67 74 81 86 87 90 98 108 120 130 142 155 170 191 211 226 238 248 255 258 262 265 270 276 278 277 272 264 257 255 252 246 237 226 213 208	16 -2 -6 4 25	-6064 -16204 -14284 -11664 -10112	-5248 -14580 -11680 -9136 -6892	8232 7272 7472 6828 7608
2197	124	944	5	17	311	3	91	0	0	0	210 206 200 194 186 180 173 164 148 131 127 130 129 118 106 94 86 84 82 78 77 87 98 101 97 91 83 67 47 32 28 32 37 40 33 17 1 -12 -23 -31 -37 -42 -47 -56 -65 -69 -67 -56 -49 -53	49 65 62 46 23	-8144 -6604 -6016 -6116 -12980	-5256 -4576 -2764 -3692 -7244	8424 8796 9504 8892 7248
2198	124	944	5	17	311	3	91	0	0	0	-62 -64 -48 -8 44 101 160 206 218 186 129 81 65 77 101 120 130 133 131 124 109 94 83 74 68 64 59 58 58 52 44 39 31 25 23 22 19 13 5 -2 -10 -20 -32 -41 -44 -42 -41 -41 -46 -57	9 10 24 47 65	-14944 -15272 -9892 -7684 -6068	-11856 -9000 -7600 -6408 -4688	6924 6572 7276 8176 8648
2199	124	360	5	17	311	3	91	0	0	1	-74 -90 -103 -110 -109 -109 -120 -136 -144 -143 -143 -151 -168 -186 -198 -201 -201 -203 -208 -221 -237 -251 -263 -268 -268 -270 -271 -264 -251 -244 -248 -252 -255 -258 -261 -260 -251 -238 -223 -211 -204 -196 -182 -165 -148 -129 -108 -88 -69 -49	65 49 23 -2 -11	-5680 -4936 -6104 -15096 -12548	-4208 -4736 -5248 -14644 -12240	8516 9024 8560 6056 7116
2200	124	360	5	17	311	3	91	0	0	0	-30 -16 -10 -12 -17 -18 -15 -13 -15 -19 -20 -19 -14 -4 8 13 13 11 8 14 33 63 102 150 196 220 202 126 17 -80 -149 -189 -206 -215 -216 -199 -169 -151 -157 -170 -180 -186 -190 -197 -208 -220 -232 -243 -249 -254	-5 12 32 43 35	-11708 -9980 -7976 -6548 -5852	-9312 -6948 -5232 -4496 -3672	6696 7664 8300 8972 9020
2201	124	576	5	17	311	3	91	0	0	1	-254 -249 -246 -249 -253 -255 -256 -259 -268 -283 -300 -319 -335 -337 -336 -339 -333 -315 -290 -267 -255 -247 -244 -243 -241 -242 -247 -247 -239 -231 -224 -212 -193 -168 -142 -124 -114 -110 -109 -105 -91 -77 -73 -76 -80 -80 -78 -77 -72 -66	11 -20 -43 -51 -46	-5840 -9820 -15748 -15940 -9948	-3696 -6072 -9852 -9272 -7852	8772 7400 8208 5636 6948
2202	124	576	5	17	311	3	91	0	0	0	-69 -76 -86 -106 -121 -122 -123 -130 -142 -156 -175 -200 -222 -237 -246 -251 -262 -279 -301 -324 -345 -362 -375 -381 -386 -396 -410 -427 -441 -450 -459 -469 -473 -474 -481 -491 -488 -465 -425 -374 -317 -266 -248 -272 -340 -436 -517 -566 -590 -600	-30 -16 -15 -28 -49	-7988 -6116 -5804 -4916 -5256	-6256 -4876 -4252 -4760 -4716	8348 8848 8704 9096 8308
2203	124	472	5	17	311	3	91	0	0	0	-592 -552 -510 -483 -457 -445 -469 -523 -597 -668 -700 -693 -671 -653 -644 -631 -610 -587 -563 -533 -493 -453 -417 -384 -355 -336 -324 -310 -291 -274 -270 -274 -275 -272 -265 -252 -236 -220 -206 -191 -179 -178 -180 -177 -171 -170 -180 -201 -223 -231	-71 -78 -72 -55 -35	-11224 -15736 -13276 -10648 -8168	-11800 -11104 -13312 -6856 -5348	7600 6700 6408 7552 8388
2204	124	472	5	17	311	3	91	0	0	1	-226 -229 -245 -264 -276 -277 -272 -278 -292 -295 -287 -281 -284 -291 -298 -300 -295 -294 -305 -311 -303 -290 -281 -276 -280 -289 -295 -287 -279 -283 -291 -304 -325 -340 -344 -349 -353 -352 -356 -365 -368 -367 -376 -381 -359 -327 -296 -272 -265 -265	-21 -22 -35 -55 -66	-6708 -6044 -5604 -7420 -19632	-4440 -4008 -3308 -4776 -10212	8680 8700 8988 7308 6816
2205	124	472	5	17	311	3	91	0	0	0	-251 -222 -188 -144 -79 4 91 169 215 218 174 99 36 9 8 19 36 54 72 93 97 71 37 15 2 -2 -7 -20 -39 -62 -82 -95 -109 -125 -140 -155 -169 -181 -189 -198 -211 -222 -232 -252 -280 -306 -322 -328 -331 -336	-64 -48 -22 2 13	-17016 -10396 -8696 -6416 -5684	-9552 -8220 -6472 -5072 -4176	5624 7048 8076 8696 8680
2206	124	468	5	17	311	3	91	0	0	1	-345 -363 -383 -400 -415 -421 -420 -424 -438 -455 -466 -467 -463 -463 -474 -496 -519 -538 -557 -569 -571 -564 -553 -539 -524 -505 -494 -500 -514 -522 -519 -509 -496 -486 -474 -451 -421 -396 -374 -348 -319 -289 -258 -227 -201 -183 -170 -160 -150 -142	7 -9 -26 -30 -19	-4920 -5416 -9352 -15040 -13204	-4544 -4688 -10860 -11016 -12676	8828 8312 6988 6204 6136
2207	124	468	5	17	311	3	91	0	0	0	-135 -129 -125 -131 -139 -137 -126 -112 -96 -85 -81 -79 -79 -84 -93 -93 -88 -85 -86 -87 -79 -56 -21 25 83 138 167 148 74 -20 -88 -123 -140 -149 -155 -148 -118 -76 -48 -41 -45 -50 -53 -50 -38 -24 -17 -28 -47 -50	2 25 42 41 25	-10668 -8644 -6816 -5992 -5360	-7224 -5752 -4768 -3940 -2700	7204 8420 8820 8660 8996
2208	124	464	5	17	311	3	91	0	0	1	-10 4 7 8 5 4 15 40 74 106 131 148 164 190 217 234 248 268 292 315 339 373 413 449 477 506 536 562 584 603 619 642 673 701 722 738 751 765 779 791 800 807 814 827 836 840 849 863 871 864	1 -16 -18 -6 17	-6752 -19072 -16424 -15536 -9180	-4396 -9964 -11092 -9396 -6932	7804 5616 7008 6392 7636
2209	125	464	5	17	311	3	91	0	0	0	845 828 823 829 837 841 840 837 835 832 830 830 829 825 817 810 805 798 786 771 758 750 749 751 751 748 743 734 728 731 739 742 740 735 738 757 798 850 903 955 985 976 922 840 774 743 735 738 742 750	41 52 48 32 13	-7064 -5868 -5424 -5004 -6192	-5492 -4488 -4524 -4416 -5868	8656 8988 8860 8568 7712
2210	125	464	5	17	311	3	91	0	0	1	772 806 828 822 803 786 775 780 798 819 840 863 889 910 924 933 939 945 949 954 958 960 958 950 938 929 924 922 920 918 918 921 919 907 887 866 851 843 831 813 794 776 761 747 731 714 700 685 662 635	6 14 34 60 81	-16324 -13068 -11628 -9540 -7376	-15828 -12616 -8408 -6184 -5208	7056 7164 7228 8080 8320
2211	125	464	5	17	311	3	91	0	0	0	612 598 589 577 553 526 512 501 491 492 495 495 490 476 458 444 440 444 444 427 397 360 323 298 292 305 319 324 326 324 317 318 322 318 305 291 275 259 250 247 246 248 253 259 267 277 286 295 303 301	86 75 54 35 30	-6096 -5556 -6416 -15840 -14112	-4208 -2832 -3824 -8804 -13856	8640 9264 8520 7696 6664
2212	125	464	5	17	311	3	91	0	0	0	292 288 301 345 417 491 534 525 460 359 266 216 207 221 240 245 238 238 235 216 187 160 134 116 109 103 96 95 97 97 96 98 97 92 87 84 84 86 89 91 89 82 76 76 78 85 94 96 94 96	37 53 71 78 68	-15764 -9812 -7552 -6068 -5688	-9024 -7312 -5772 -4476 -4024	6676 7488 8068 9020 8852
2213	125	464	5	17	311	3	91	0	0	1	97 97 100 104 106 108 108 101 88 76 68 64 55 44 34 23 21 27 34 40 45 50 53 51 46 45 49 59 75 88 90 87 86 90 95 101 106 107 106 104 102 96 88 80 71 62 55 49 45 45	47 22 8 9 22	-4740 -5816 -16560 -14372 -11640	-4940 -5732 -15012 -11992 -8372	8800 7512 7208 8028 7052
2214	125	464	5	17	311	3	91	0	0	0	48 46 37 27 15 8 7 2 -8 -20 -33 -39 -41 -44 -45 -46 -50 -51 -41 -14 32 95 161 209 226 195 110 11 -62 -114 -146 -149 -130 -100 -62 -29 -26 -40 -47 -48 -50 -51 -52 -57 -65 -68 -64 -63 -66 -67	41 56 54 38 14	-9672 -7404 -6052 -5860 -6352	-6196 -4800 -3876 -2840 -3964	7752 8308 8876 9364 8920
2215	125	472	5	17	311	3	91	0	0	1	-65 -64 -60 -53 -44 -37 -35 -37 -40 -35 -22 -7 6 27 54 76 88 90 81 71 64 57 56 60 60 60 53 36 19 6 -8 -18 -20 -22 -28 -41 -57 -75 -87 -89 -86 -86 -93 -100 -102 -107 -116 -125 -129 -122	-7 -13 -5 13 33	-12508 -13188 -15592 -9876 -7872	-6804 -13040 -9680 -7544 -6328	7248 7112 5660 7016 8288
2216	125	472	5	17	311	3	91	0	0	0	-106 -95 -98 -107 -109 -99 -87 -86 -96 -109 -114 -111 -108 -109 -117 -135 -158 -174 -174 -164 -158 -164 -179 -197 -211 -217 -221 -225 -232 -241 -249 -252 -252 -253 -246 -223 -185 -135 -90 -76 -108 -175 -242 -285 -310 -321 -324 -321 -304 -267	42 33 13 -14 -30	-5888 -5440 -4712 -5548 -17016	-4616 -4176 -4364 -5028 -15384	8856 8496 8852 8140 7712
2217	125	460	5	17	311	3	91	0	0	1	-222 -191 -179 -170 -159 -148 -135 -120 -107 -99 -92 -87 -86 -84 -81 -80 -80 -79 -82 -81 -73 -68 -66 -66 -67 -69 -77 -86 -88 -84 -83 -89 -100 -112 -118 -117 -118 -122 -124 -126 -130 -137 -143 -148 -155 -169 -192 -216 -228 -229	-31 -18 2 21 24	-13600 -12784 -10252 -8276 -5952	-11988 -12288 -7024 -5304 -3492	7156 6288 7516 8384 8912
2218	125	460	5	17	311	3	91	0	0	0	-234 -241 -252 -268 -280 -284 -285 -285 -286 -291 -300 -310 -330 -354 -366 -370 -377 -382 -381 -380 -373 -362 -362 -373 -386 -400 -415 -430 -443 -451 -458 -466 -471 -469 -457 -427 -385 -335 -284 -237 -201 -173 -148 -126 -98 -64 -35 -16 1 29	9 -17 -44 -58 -56	-6048 -9440 -14596 -15776 -11200	-3624 -5784 -9396 -8796 -7872	8596 7588 7316 5528 6660
2219	129	460	5	17	311	3	91	0	0	0	72 123 179 244 300 324 303 225 121 45 9 -4 -4 -5 -16 -29 -44 -74 -114 -153 -183 -205 -224 -245 -270 -296 -313 -322 -330 -344 -367 -390 -405 -412 -420 -436 -457 -476 -487 -481 -471 -474 -485 -494 -503 -510 -517 -526 -535 -544	-41 -21 -8 -13 -31	-8984 -6656 -5632 -5100 -5292	-6632 -5360 -4232 -4548 -4604	8144 8848 8956 8780 8156
2220	129	460	5	17	311	3	91	0	0	1	-551 -556 -561 -562 -559 -559 -566 -572 -577 -577 -574 -570 -564 -553 -545 -544 -540 -531 -516 -495 -470 -440 -407 -370 -330 -287 -245 -206 -173 -143 -118 -97 -78 -62 -45 -26 -8 7 19 34 56 78 86 85 84 84 86 85 71 53	-55 -72 -73 -59 -38	-11412 -15448 -12936 -10548 -7984	-12344 -11204 -12444 -6668 -5676	8108 6560 7220 7632 8220
2221	129	460	5	17	311	3	91	0	0	0	38 28 22 17 6 -8 -20 -31 -38 -41 -44 -48 -50 -56 -65 -66 -55 -32 9 72 149 220 253 221 112 -28 -135 -192 -207 -196 -183 -162 -125 -81 -52 -62 -95 -118 -129 -130 -124 -127 -142 -152 -154 -151 -146 -140 -132 -127	-16 -8 -15 -32 -49	-6804 -6064 -5960 -8744 -17388	-4784 -3536 -3328 -4984 -8932	8688 8808 9112 7248 7404
2222	129	468	5	17	311	3	91	0	0	1	-123 -114 -100 -80 -53 -16 24 58 87 112 128 138 146 152 162 178 197 210 213 208 202 201 207 216 218 200 173 152 136 123 115 105 96 86 69 49 34 27 26 22 10 -10 -26 -36 -43 -54 -66 -78 -92 -107	-51 -38 -14 13 30	-16420 -13960 -8428 -6404 -5220	-8472 -9376 -6516 -5052 -4080	5788 5788 8112 8576 8764
2223	129	468	5	17	311	3	91	0	0	0	-118 -135 -155 -164 -162 -164 -181 -204 -223 -234 -236 -236 -242 -254 -272 -296 -318 -329 -328 -325 -324 -331 -342 -347 -348 -350 -349 -338 -326 -313 -297 -280 -257 -221 -174 -115 -43 27 65 47 -14 -71 -100 -102 -87 -64 -31 14 63 93	27 10 -14 -28 -27	-5196 -5364 -13636 -15712 -12992	-4736 -4904 -13476 -11416 -11424	8808 8548 7940 6912 6588
2224	129	468	5	17	311	3	91	0	0	0	98 98 105 116 124 127 131 138 146 153 160 164 171 179 190 196 196 194 190 190 198 202 201 199 198 200 207 214 216 214 208 201 194 189 187 188 188 183 174 168 164 159 152 142 128 120 120 122 122 123	-13 9 30 36 25	-10340 -8452 -6896 -5892 -5728	-7064 -5584 -4604 -3656 -3156	7300 8332 8956 8688 8772
2225	129	468	5	17	311	3	91	0	0	0	128 129 120 103 90 87 90 95 93 85 80 86 101 117 130 133 129 121 115 116 123 133 144 156 171 188 209 233 259 279 287 283 274 271 274 281 292 301 308 309 306 304 303 306 312 313 309 308 316 332	4 -16 -21 -12 11	-7252 -19360 -16320 -14672 -9056	-4792 -11416 -8748 -9360 -6688	7104 5880 6328 5720 7520
2226	129	468	5	17	311	3	91	0	0	0	362 406 445 466 457 404 317 228 162 119 97 86 79 82 101 118 111 84 55 33 18 4 -13 -32 -46 -55 -64 -75 -86 -95 -102 -106 -111 -118 -125 -136 -150 -160 -166 -167 -164 -162 -161 -160 -160 -163 -167 -169 -165 -162	37 54 50 32 5	-6588 -5640 -5204 -5352 -8260	-5308 -4232 -4328 -4760 -8636	8960 8900 8716 8332 7264
2227	129	924	5	17	311	3	91	0	0	2	-165 -170 -171 -168 -162 -154 -148 -140 -130 -118 -102 -82 -58 -31 -3 23 50 77 97 111 125 139 149 158 165 167 167 168 169 175 186 194 200 208 212 213 209 197 184 176 168 160 147 133 123 113 101 88 76 67	-13 -16 -5 14 32	-14028 -12928 -10704 -8648 -6996	-11088 -12920 -7044 -5656 -4932	5136 5808 7608 8016 8748
2228	129	924	5	17	311	3	91	0	0	0	52 45 37 28 14 -3 -18 -27 -33 -43 -55 -61 -52 -24 21 77 140 200 224 191 93 -38 -140 -198 -230 -248 -246 -212 -164 -117 -92 -101 -121 -126 -127 -136 -148 -158 -165 -169 -163 -150 -134 -117 -95 -67 -35 -8 12 31	35 19 -7 -33 -46	-5748 -5564 -7364 -19768 -16268	-3872 -2668 -4568 -11220 -10140	8864 9184 7828 6180 6488
2229	125	468	5	17	311	3	91	0	0	1	42 40 36 42 59 84 110 130 139 142 142 138 134 132 127 119 113 111 107 96 80 58 35 14 -4 -18 -30 -49 -75 -98 -115 -123 -127 -136 -153 -176 -196 -210 -221 -226 -230 -244 -265 -278 -277 -271 -269 -277 -291 -301	-44 -30 -12 -4 -12	-15572 -8756 -6396 -6116 -5088	-9164 -6636 -5368 -4248 -4344	5356 8308 8216 8600 8640
2230	125	468	5	17	311	3	91	0	0	0	-300 -291 -289 -298 -319 -343 -360 -373 -380 -383 -387 -396 -408 -426 -452 -474 -478 -471 -462 -457 -458 -460 -453 -440 -429 -422 -413 -396 -363 -306 -226 -125 -10 99 174 195 151 73 6 -37 -59 -62 -56 -46 -23 6 25 29 29 33	-32 -56 -70 -66 -48	-5140 -8632 -12824 -12908 -12456	-4628 -9104 -12244 -13380 -11192	8808 7332 7024 6416 6040
2231	125	344	5	17	311	3	91	0	0	1	39 47 56 57 57 60 57 50 43 32 23 21 17 8 0 -4 -9 -13 -18 -22 -30 -42 -49 -51 -54 -58 -66 -79 -90 -95 -107 -122 -134 -143 -146 -144 -146 -156 -170 -182 -193 -198 -196 -193 -191 -194 -199 -199 -203 -219	-21 5 16 8 -11	-8940 -7288 -6052 -5964 -6704	-5976 -4568 -3912 -2928 -4488	8076 8640 8712 9268 8240
2232	125	344	5	17	311	3	91	0	0	0	-242 -259 -258 -235 -209 -195 -192 -195 -198 -199 -195 -185 -172 -159 -147 -131 -106 -69 -32 -10 0 5 10 20 36 57 77 90 98 102 100 92 84 81 85 91 94 92 91 93 94 88 72 55 38 28 35 56 94 141	-32 -39 -34 -15 9	-17920 -15092 -15608 -9092 -6888	-9796 -11796 -8968 -7232 -5888	7704 6732 5700 7280 8484
2233	125	344	5	17	311	3	91	0	0	0	174 171 120 32 -60 -123 -160 -184 -204 -210 -197 -168 -139 -135 -163 -203 -239 -264 -272 -269 -265 -267 -274 -278 -280 -281 -283 -286 -285 -281 -277 -273 -269 -264 -261 -260 -262 -265 -261 -252 -237 -219 -203 -191 -181 -167 -147 -123 -97 -72	25 24 10 -12 -25	-5948 -5588 -4900 -6756 -12868	-4544 -4260 -4632 -7084 -13340	9216 8432 9144 6780 6928
2234	125	580	5	17	311	3	91	0	0	1	-43 -9 31 72 109 140 164 184 200 212 222 231 239 250 262 271 276 281 289 303 324 344 359 364 358 345 338 341 347 346 337 328 328 334 335 324 305 288 281 279 274 264 253 243 236 230 221 212 203 189	-21 -2 24 48 55	-12556 -12184 -9048 -7220 -6088	-13072 -11424 -5748 -4564 -3952	6712 6144 8104 8304 8516
2235	125	580	5	17	311	3	91	0	0	0	171 157 152 163 177 182 177 165 158 166 181 204 237 286 343 392 400 345 261 202 172 163 159 153 158 182 215 233 225 210 206 212 230 259 290 319 348 383 425 458 468 468 471 487 510 527 531 526 522 527	43 16 -16 -43 -53	-6044 -6888 -19724 -15164 -14672	-3000 -4304 -10968 -11024 -9212	9264 7956 6016 7188 5892
2236	125	464	5	17	311	3	91	0	0	1	538 551 560 562 557 546 530 516 509 504 496 481 457 425 396 375 358 343 331 319 297 272 247 222 201 191 181 165 142 113 87 73 70 74 74 64 46 28 19 23 30 31 23 10 -4 -11 -13 -16 -21 -28	-46 -32 -18 -12 -20	-11648 -7508 -5828 -5312 -5076	-8556 -5664 -4360 -4020 -4824	6640 8584 8972 8724 8692
2237	125	464	5	17	311	3	91	0	0	0	-32 -38 -48 -58 -67 -77 -86 -90 -89 -89 -97 -107 -115 -116 -110 -101 -89 -75 -58 -40 -18 7 33 60 88 125 177 246 331 431 528 592 605 549 450 369 323 310 328 354 376 397 417 421 404 383 370 365 365 369	-38 -49 -45 -28 -2	-7180 -10528 -12572 -11816 -9072	-6724 -12148 -12600 -11008 -6616	7080 6080 7204 5688 7688
2238	125	468	5	17	311	3	91	0	0	1	374 379 386 393 393 384 378 380 387 396 405 410 413 416 418 421 429 442 455 468 476 479 483 492 496 495 495 501 512 522 521 512 507 508 509 513 520 520 515 512 506 499 498 500 499 496 493 492 495 502	25 39 37 24 11	-7956 -6548 -6156 -6620 -16076	-5460 -4096 -3244 -4492 -9940	8548 8992 9044 8268 7104
2239	128	468	5	17	311	3	91	0	0	0	511 519 524 529 533 540 549 558 568 571 560 536 514 506 506 504 484 448 421 412 411 414 409 392 379 373 365 350 325 297 279 272 270 265 251 233 222 219 211 195 184 182 192 211 233 267 321 379 410 391	7 14 31 49 60	-13812 -14728 -11540 -7748 -6016	-11584 -9044 -8724 -5924 -4888	7596 6108 6288 8336 8940
2240	128	464	5	17	311	3	91	0	0	0	317 212 124 77 60 57 62 77 104 138 154 136 99 65 41 34 41 48 48 45 32 18 18 23 21 12 1 -3 6 21 28 25 23 25 30 40 52 64 75 78 78 72 67 68 69 67 67 65 56 45	54 37 15 4 7	-5588 -5384 -8052 -12144 -12356	-4420 -4824 -7428 -11956 -12156	9268 9108 7120 6228 7056
2241	128	464	5	17	311	3	91	0	0	1	32 17 2 -6 -8 -4 3 11 11 -2 -19 -36 -47 -53 -56 -57 -59 -61 -62 -59 -59 -63 -68 -72 -74 -71 -64 -61 -65 -66 -67 -68 -71 -79 -86 -89 -89 -91 -99 -117 -131 -129 -118 -112 -113 -120 -129 -132 -130 -132	22 44 63 66 55	-11208 -8396 -7300 -5944 -6396	-9920 -6120 -4720 -3748 -3252	6572 7980 8544 9380 9352
2242	128	464	5	17	311	3	91	0	0	0	-135 -135 -131 -121 -108 -99 -87 -66 -36 4 46 78 97 98 63 -7 -84 -138 -164 -168 -159 -140 -110 -65 -21 1 2 -9 -26 -42 -55 -62 -60 -59 -65 -70 -72 -73 -71 -64 -60 -62 -60 -51 -46 -44 -41 -44 -48 -43	36 20 14 19 34	-6504 -14948 -13772 -14204 -11944	-3732 -7884 -10372 -9236 -8524	9432 5708 6216 5932 6428
2243	128	456	5	17	311	3	91	0	0	1	-37 -39 -46 -49 -46 -40 -34 -30 -36 -41 -36 -31 -27 -25 -24 -27 -35 -43 -49 -48 -38 -34 -42 -59 -74 -76 -72 -74 -78 -83 -79 -65 -47 -31 -24 -25 -31 -40 -45 -42 -38 -39 -40 -36 -24 -8 5 5 -6 -17	52 61 55 42 23	-7344 -5584 -5692 -5428 -6576	-6084 -4928 -4528 -4884 -6188	8444 9320 8812 8896 7696
2244	128	456	5	17	311	3	91	0	0	0	-22 -20 -14 -10 -13 -17 -17 -14 -6 5 15 19 18 15 14 15 18 21 23 23 21 20 24 41 74 122 182 241 279 272 206 106 16 -46 -76 -79 -72 -75 -77 -64 -50 -48 -46 -49 -62 -72 -72 -73 -80 -85	10 9 18 31 42	-14596 -13388 -12228 -11192 -7760	-13720 -12712 -11480 -8000 -4912	7688 7276 6444 6960 8140
2245	128	464	5	17	311	3	91	0	0	1	-87 -85 -84 -84 -88 -86 -83 -88 -94 -94 -84 -69 -56 -50 -47 -43 -37 -38 -39 -31 -18 -5 2 1 0 3 7 7 7 6 3 1 3 5 3 -3 -8 -14 -13 -7 6 22 40 55 66 73 71 60 40 19	40 23 -2 -24 -34	-6216 -5848 -5892 -20636 -12772	-4268 -3264 -3300 -9984 -11848	8932 9424 8984 7572 7244
2246	128	464	5	17	311	3	91	0	0	0	0 -14 -22 -24 -16 -1 10 16 21 20 19 17 13 4 -11 -27 -38 -45 -50 -57 -71 -90 -108 -119 -131 -143 -147 -146 -145 -141 -134 -127 -122 -120 -125 -132 -131 -119 -99 -70 -33 15 84 166 224 227 163 48 -57 -119	-32 -21 -7 -1 -10	-15004 -12084 -7424 -6260 -5484	-9372 -8952 -6060 -4948 -3992	6532 6072 8248 9228 8824
2247	128	464	5	17	311	3	91	0	0	0	-139 -128 -99 -64 -25 10 26 16 -4 -21 -32 -39 -43 -46 -48 -46 -43 -40 -39 -40 -41 -40 -37 -36 -33 -28 -19 -5 13 30 42 51 57 63 66 68 68 67 68 65 57 47 37 26 15 3 -8 -13 -17 -20	-29 -51 -63 -60 -46	-5312 -5276 -14872 -12880 -12588	-4576 -4944 -14520 -12460 -11324	8888 8568 7268 7324 6080
2248	128	464	5	17	311	3	91	0	0	1	-32 -38 -43 -48 -54 -66 -83 -90 -91 -93 -100 -111 -119 -119 -114 -110 -107 -103 -95 -89 -86 -81 -74 -67 -61 -56 -52 -55 -64 -76 -86 -91 -92 -94 -104 -118 -135 -150 -161 -165 -168 -184 -206 -225 -237 -239 -229 -219 -217 -223	-24 -5 -1 -13 -37	-11444 -6428 -5704 -6072 -12640	-8788 -4320 -3664 -3048 -7000	6948 8812 9156 9316 7112
2249	127	464	5	17	311	3	91	0	0	0	-235 -249 -257 -248 -222 -185 -138 -86 -55 -64 -123 -213 -286 -317 -307 -268 -221 -179 -144 -122 -122 -140 -156 -162 -165 -171 -183 -195 -204 -207 -205 -200 -197 -195 -195 -203 -215 -226 -236 -248 -259 -273 -289 -306 -323 -347 -374 -398 -421 -440	-59 -67 -62 -43 -20	-14980 -14772 -12720 -7976 -6168	-13200 -8804 -9052 -6188 -4940	7168 6488 6024 8468 8548
2250	127	520	5	17	311	3	91	0	0	1	-453 -464 -478 -495 -518 -551 -591 -626 -652 -670 -684 -703 -732 -767 -798 -823 -842 -857 -875 -894 -906 -916 -927 -934 -943 -957 -972 -984 -993 -998 -1002 -1004 -1006 -1008 -1005 -998 -988 -981 -983 -987 -987 -984 -974 -960 -950 -940 -924 -896 -856 -808	-4 -7 -21 -41 -52	-5488 -5052 -4932 -15132 -13008	-4200 -4472 -4492 -14016 -12484	8692 9064 8856 7376 7304
2251	127	520	5	17	311	3	91	0	0	0	-762 -718 -674 -631 -591 -558 -537 -523 -507 -490 -475 -464 -455 -447 -440 -431 -416 -394 -366 -331 -284 -229 -172 -121 -89 -97 -156 -247 -332 -397 -434 -447 -452 -452 -440 -413 -397 -403 -419 -430 -433 -428 -422 -426 -440 -450 -453 -451 -445 -443	-46 -28 -2 23 30	-12728 -11748 -7784 -6604 -5996	-11612 -8388 -4824 -4224 -3444	6116 6728 8532 8672 9212
2252	127	400	5	17	311	3	91	0	0	1	-447 -448 -445 -435 -416 -402 -404 -414 -424 -424 -407 -375 -349 -340 -347 -359 -355 -327 -283 -251 -232 -213 -191 -166 -147 -139 -136 -126 -109 -88 -60 -21 25 72 114 150 176 197 218 241 272 308 338 356 366 366 364 370 384 406	19 -5 -33 -55 -57	-6124 -16892 -13288 -15192 -12324	-3148 -9124 -11452 -9032 -9056	9496 7356 7268 5880 5776
2253	127	400	5	17	311	3	91	0	0	0	436 463 480 489 497 507 524 546 564 574 577 572 563 554 549 544 528 500 476 464 465 479 494 498 490 486 487 490 498 498 484 471 471 484 509 542 582 635 700 754 769 730 642 549 487 452 440 451 489 541	-51 -40 -28 -23 -33	-9812 -6360 -5568 -5196 -4956	-7428 -4636 -4544 -4884 -4180	7248 8956 8508 8864 8184
2254	127	464	5	17	311	3	91	0	0	2	589 626 635 610 569 528 495 475 476 492 509 516 523 539 561 581 595 607 609 612 625 648 674 691 701 707 702 693 693 701 706 705 705 707 711 714 708 692 677 669 665 659 647 630 615 600 579 551 524 510	-42 -40 -29 -10 12	-11892 -12432 -12252 -11120 -7696	-13100 -12208 -11080 -8192 -4984	6668 7040 6040 6496 8324
2255	127	464	5	17	311	3	91	0	0	0	504 501 497 488 474 464 458 446 433 423 418 420 420 417 411 404 406 410 405 403 410 418 425 429 421 400 380 371 366 364 367 363 346 326 311 299 291 284 275 265 261 259 254 249 247 254 272 292 308 331	30 31 19 1 -11	-6416 -6120 -5992 -7252 -13560	-4188 -3296 -3472 -4692 -11156	9028 9012 8600 7536 5968
2256	127	464	5	17	311	3	91	0	0	0	371 422 482 551 601 605 552 451 343 271 237 231 235 237 236 241 243 233 218 200 182 172 169 170 170 162 150 141 139 140 138 132 123 116 110 109 113 118 122 123 122 122 123 135 146 142 128 117 115 121	-11 -2 15 30 34	-13212 -10620 -8912 -5956 -5620	-9104 -8052 -7208 -4584 -4508	5756 6036 7676 8756 9144
2257	127	460	5	17	311	3	91	0	0	1	137 149 145 130 115 103 96 93 95 102 113 123 123 110 86 61 43 28 16 10 17 43 78 100 99 86 72 66 69 81 98 119 143 162 171 175 178 182 182 179 172 158 146 138 133 125 115 102 88 81	25 10 0 4 20	-4856 -5388 -15076 -12768 -11332	-4528 -4820 -11452 -12192 -9212	9060 8484 7120 6804 6244
2258	127	460	5	17	311	3	91	0	0	0	76 72 70 71 70 61 48 38 30 25 19 7 -2 -3 6 29 58 96 149 208 247 233 156 54 -24 -67 -96 -114 -120 -105 -70 -26 3 12 10 7 5 3 7 11 1 -22 -42 -46 -29 0 22 33 34 29	42 64 74 65 45	-10200 -7228 -6348 -6000 -6224	-6364 -4312 -3568 -3056 -4156	7632 8748 8984 9492 8324
2259	129	464	5	17	311	3	91	0	0	1	27 30 35 37 41 46 49 50 51 57 69 89 114 142 171 192 191 169 132 97 79 78 84 83 74 67 66 67 63 51 33 20 18 19 17 14 15 21 19 4 -11 -20 -23 -25 -36 -49 -52 -45 -37 -33	26 19 22 37 55	-15856 -15324 -12428 -9672 -7568	-7520 -9224 -8940 -7532 -5892	7784 5964 6388 7268 8276
2260	129	464	5	17	311	3	91	0	0	0	-28 -25 -19 -12 -14 -23 -28 -26 -23 -16 -18 -34 -51 -66 -76 -75 -68 -63 -61 -61 -63 -65 -63 -64 -72 -75 -71 -64 -55 -41 -20 14 57 99 128 125 80 13 -42 -79 -104 -117 -116 -100 -69 -34 -14 -10 -8 -4	64 58 40 19 9	-5336 -5012 -5080 -7160 -12072	-4380 -4920 -4424 -7316 -12908	8804 9248 8776 6616 6184
2261	129	456	5	17	311	3	91	0	0	1	-6 -13 -17 -21 -26 -30 -29 -28 -33 -42 -50 -54 -49 -43 -37 -35 -33 -27 -25 -30 -32 -38 -49 -54 -55 -51 -46 -47 -52 -60 -68 -70 -65 -59 -55 -57 -73 -98 -114 -111 -99 -90 -86 -83 -76 -76 -81 -85 -90 -86	13 28 49 66 63	-11924 -11176 -9068 -7552 -5680	-10924 -8236 -6324 -4932 -2864	6896 6960 7976 8504 9220
2262	129	456	5	17	311	3	91	0	0	0	-76 -71 -65 -49 -32 -21 -20 -24 -22 -14 -4 9 23 32 34 34 36 37 40 41 36 31 30 34 34 32 31 30 28 36 53 69 85 95 92 78 65 56 52 52 54 58 65 80 101 128 164 212 257 278	44 14 -10 -23 -24	-6316 -7204 -17524 -14608 -11664	-3512 -4640 -10292 -9160 -8912	9188 7852 5896 5844 6400
2263	129	456	5	17	311	3	91	0	0	0	254 179 87 16 -24 -39 -41 -38 -32 -15 -2 -13 -43 -76 -105 -122 -127 -134 -141 -146 -152 -158 -165 -177 -190 -196 -204 -216 -229 -242 -254 -262 -271 -283 -297 -310 -317 -322 -329 -341 -354 -366 -377 -388 -403 -424 -447 -463 -474 -484	-14 -3 -3 -18 -43	-9340 -7540 -5584 -5228 -5160	-7228 -6164 -4352 -5016 -4660	7416 8628 8620 8784 8596
2264	129	456	5	17	311	3	91	0	0	1	-497 -516 -540 -566 -588 -604 -614 -622 -632 -644 -657 -664 -661 -651 -637 -617 -592 -559 -518 -480 -449 -425 -407 -388 -368 -347 -329 -315 -309 -306 -303 -294 -281 -270 -266 -268 -266 -262 -263 -264 -265 -268 -271 -276 -284 -293 -299 -299 -298 -302	-69 -83 -82 -67 -47	-7228 -12252 -12660 -11204 -9128	-7068 -13936 -10728 -7892 -5776	7604 7868 6204 7016 7976
2265	129	456	5	17	311	3	91	0	0	0	-308 -310 -310 -306 -296 -284 -278 -274 -267 -251 -221 -180 -116 -27 57 103 85 -14 -145 -243 -291 -294 -265 -224 -177 -122 -71 -47 -45 -48 -51 -48 -37 -26 -19 -10 11 42 76 105 129 148 166 190 218 250 287 327 370 417	-29 -28 -40 -58 -69	-7592 -5552 -6400 -7212 -17616	-4752 -2928 -3376 -4536 -10136	8488 9300 9268 7828 6564
2266	129	468	5	17	311	3	91	0	0	1	474 543 614 676 725 765 799 825 849 874 891 903 913 917 916 905 883 858 842 833 826 811 789 771 761 749 732 716 700 686 673 661 647 634 626 620 613 602 592 583 576 577 577 570 557 548 547 544 534 520	-67 -51 -26 0 12	-14800 -11632 -9248 -7376 -6012	-8996 -8692 -7068 -5924 -4920	6116 6284 7564 8220 8848
2267	129	468	5	17	311	3	91	0	0	0	503 488 475 456 434 414 397 383 370 360 352 346 336 321 308 295 285 279 269 257 246 238 233 238 259 294 341 402 466 504 490 422 327 248 193 155 125 103 94 104 129 146 144 131 116 101 93 92 92 87	10 -2 -15 -14 -1	-5064 -4936 -8052 -11752 -12172	-4880 -4464 -8840 -12892 -10376	8948 8628 7360 7452 6416
2268	129	460	5	17	311	3	91	0	0	1	78 69 62 59 62 71 80 78 61 42 33 31 30 27 23 18 18 22 22 19 18 18 20 22 13 -1 -12 -15 -17 -21 -31 -49 -64 -70 -69 -65 -66 -73 -80 -85 -90 -92 -92 -92 -92 -86 -80 -85 -95 -100	22 48 66 66 51	-10992 -8776 -7332 -5984 -6276	-7612 -5584 -4672 -2852 -3632	7128 8332 8520 9504 8988
2269	132	460	5	17	311	3	91	0	0	0	-90 -89 -93 -97 -99 -88 -69 -56 -51 -48 -45 -44 -43 -42 -40 -37 -28 -16 -12 -16 -24 -33 -42 -55 -71 -82 -87 -87 -80 -73 -71 -73 -80 -89 -93 -84 -65 -46 -31 -10 23 67 109 136 129 76 -5 -79 -127 -151	30 19 20 33 53	-7184 -17028 -14196 -11140 -9160	-4600 -9832 -9152 -8360 -6632	7512 6216 5664 6724 7660
2270	132	460	5	17	311	3	91	0	0	0	-157 -155 -146 -129 -103 -83 -84 -97 -104 -105 -106 -105 -101 -96 -93 -95 -99 -101 -97 -87 -81 -84 -86 -78 -65 -52 -48 -49 -51 -50 -42 -34 -29 -27 -26 -28 -29 -28 -26 -23 -18 -13 -8 -4 -5 -7 -5 0 7 18	71 73 61 39 19	-7196 -5824 -5320 -4996 -8492	-5636 -4372 -5028 -4452 -9436	8796 9268 8904 8932 6788
2271	132	456	5	17	311	3	91	0	0	1	27 35 43 49 48 40 29 17 6 -4 -11 -13 -14 -16 -19 -23 -29 -35 -35 -30 -26 -22 -18 -16 -11 -4 1 2 -6 -23 -35 -38 -35 -33 -38 -52 -64 -69 -72 -76 -87 -99 -101 -98 -98 -100 -103 -110 -108 -93	12 18 33 50 59	-13116 -11412 -10860 -8944 -6992	-11924 -10840 -7568 -6024 -4660	6428 6292 7092 8304 8760
2272	132	456	5	17	311	3	91	0	0	0	-80 -78 -75 -57 -21 30 86 126 133 99 30 -43 -97 -127 -139 -135 -115 -84 -46 -17 -8 -11 -19 -28 -34 -32 -19 -2 7 5 4 8 17 30 45 57 64 67 66 61 56 46 32 16 5 5 14 19 18 15	50 28 2 -12 -14	-5920 -5736 -7192 -17304 -15628	-2820 -3336 -4712 -11476 -9020	9392 9364 7456 5840 6312
2273	132	456	5	17	311	3	91	0	0	1	8 5 5 4 -3 -8 -13 -24 -38 -46 -52 -58 -66 -79 -91 -103 -112 -114 -118 -124 -123 -121 -121 -124 -128 -129 -128 -120 -110 -104 -100 -94 -85 -69 -49 -34 -32 -36 -42 -43 -34 -21 -14 -16 -31 -54 -75 -88 -102 -124	-3 16 31 29 12	-11436 -9120 -6872 -5616 -4740	-8436 -6736 -5568 -4336 -4676	6556 8208 8444 8912 9004
2274	132	456	5	17	311	3	91	0	0	0	-148 -166 -176 -178 -185 -203 -218 -227 -232 -238 -244 -254 -264 -270 -272 -270 -258 -235 -201 -151 -89 -35 -14 -41 -110 -183 -239 -273 -285 -279 -265 -245 -222 -213 -227 -251 -274 -292 -306 -317 -326 -336 -340 -337 -333 -330 -328 -335 -349 -363	-14 -38 -49 -47 -35	-5332 -9524 -14104 -11232 -10488	-4604 -10640 -10800 -10688 -7368	8840 8424 5368 6056 7432
2275	132	364	5	17	311	3	91	0	0	1	-377 -387 -393 -397 -402 -412 -427 -439 -449 -461 -469 -479 -495 -512 -523 -530 -540 -557 -583 -613 -642 -668 -693 -722 -750 -771 -786 -802 -818 -832 -847 -866 -887 -905 -921 -936 -951 -967 -984 -1000 -1015 -1036 -1059 -1063 -1048 -1031 -1018 -1012 -1008 -998	-22 -18 -33 -59 -87	-8788 -7128 -6028 -5932 -7632	-5660 -4712 -4044 -3200 -4916	8384 8536 8844 8952 8112
2276	132	364	5	17	311	3	91	0	0	0	-985 -971 -953 -928 -897 -863 -830 -800 -770 -739 -713 -695 -681 -668 -651 -628 -604 -589 -585 -586 -587 -577 -554 -529 -512 -507 -507 -506 -500 -491 -481 -468 -451 -423 -382 -330 -274 -238 -250 -316 -408 -485 -537 -568 -579 -570 -546 -507 -466 -454	-102 -103 -90 -69 -53	-18184 -15412 -10880 -9016 -6504	-11276 -9544 -8352 -6700 -5660	6328 6448 6528 8044 8284
2277	132	552	5	17	311	3	91	0	0	2	-475 -505 -527 -534 -525 -520 -523 -525 -518 -501 -485 -475 -470 -462 -447 -429 -416 -408 -402 -396 -386 -367 -341 -320 -307 -293 -277 -259 -242 -225 -204 -177 -147 -119 -90 -60 -27 7 43 82 125 170 213 252 292 333 371 408 444 473	-53 -65 -84 -96 -93	-5972 -4864 -5332 -10752 -15556	-4472 -4880 -4748 -10912 -11276	8824 8744 8372 7700 7196
2278	132	552	5	17	311	3	91	0	0	0	495 512 524 535 554 575 595 616 636 655 673 684 692 701 707 707 706 703 702 704 703 687 663 645 633 625 624 619 603 582 562 545 532 526 521 517 516 513 502 489 477 467 459 451 446 451 476 520 579 644	-76 -50 -24 -11 -15	-13280 -10392 -8056 -6680 -6368	-12500 -7136 -5176 -4364 -3744	6408 7284 7964 8640 8868
2279	132	364	5	17	311	3	91	0	0	1	699 714 675 589 480 400 359 341 338 341 358 394 437 467 467 445 423 410 407 414 427 445 473 507 538 566 590 606 613 608 593 586 596 613 619 613 599 585 575 570 566 564 566 569 567 559 546 534 524 517	-28 -42 -41 -28 -3	-8444 -17848 -16052 -10808 -8664	-5496 -8432 -8580 -7960 -6672	7416 6236 5028 6852 8036
2280	132	364	5	17	311	3	91	0	0	0	514 513 499 464 430 411 404 402 398 379 353 334 326 323 321 317 314 312 310 305 297 288 282 283 286 292 293 293 299 304 308 308 303 296 288 278 272 272 274 284 296 289 269 250 229 213 214 211 204 205	25 43 42 29 10	-6540 -5292 -4852 -5284 -11936	-5240 -4048 -4796 -4732 -12540	8708 8712 8960 8844 7616
2281	132	364	5	17	312	3	91	0	0	0	210 213 217 227 239 249 253 257 270 293 329 378 431 491 555 606 626 599 528 449 387 338 302 285 283 294 316 342 353 352 349 342 331 327 323 315 306 299 296 297 296 285 272 267 263 262 266 273 277 271	0 7 26 52 76	-16948 -12704 -10484 -8416 -6936	-11720 -11948 -7168 -5384 -4228	6692 5852 7340 8464 8724
2282	132	556	5	17	312	3	91	0	0	2	257 247 245 255 269 281 282 266 251 246 250 264 275 278 271 254 232 215 205 199 200 205 203 194 184 182 185 189 191 183 173 174 178 178 175 172 173 177 182 185 195 212 228 238 245 251 251 237 205 170	83 72 50 28 20	-5900 -6088 -8456 -17624 -15736	-3708 -3324 -5376 -9484 -9244	8748 9248 7700 6976 5608
2283	132	556	5	17	312	3	91	0	0	0	145 129 121 116 113 110 110 108 101 94 93 88 68 43 24 7 -5 -10 -15 -19 -20 -20 -26 -39 -48 -43 -23 14 63 116 162 189 174 111 30 -29 -63 -81 -88 -81 -60 -25 9 17 -4 -29 -41 -44 -44 -44	24 39 57 66 55	-10468 -8416 -6124 -5484 -4976	-8056 -6400 -4960 -4240 -4596	6912 8404 8672 8908 8956
2284	132	460	5	17	312	3	91	0	0	1	-48 -56 -61 -54 -48 -54 -65 -75 -79 -76 -72 -69 -69 -71 -75 -78 -73 -60 -48 -45 -53 -61 -60 -52 -38 -18 5 28 53 72 82 87 90 93 98 100 99 95 85 74 61 46 28 18 15 13 7 -1 -9 -17	32 3 -15 -16 -3	-5436 -11232 -17920 -13368 -10604	-4768 -13184 -11148 -12840 -6596	8396 7292 6060 5244 7764
2285	132	460	5	17	312	3	91	0	0	0	-26 -35 -43 -43 -40 -39 -46 -56 -61 -60 -53 -50 -52 -59 -70 -81 -88 -95 -106 -120 -137 -155 -177 -198 -216 -231 -242 -251 -265 -288 -311 -327 -343 -364 -391 -413 -425 -432 -438 -438 -429 -406 -376 -359 -380 -449 -559 -676 -765 -794	16 32 31 11 -20	-8328 -6680 -5584 -6088 -7692	-4996 -4432 -3664 -3608 -5076	8196 8544 8932 8524 7920
2286	132	444	5	17	312	3	91	0	0	0	-767 -721 -679 -655 -643 -636 -643 -665 -685 -696 -695 -682 -661 -633 -599 -557 -513 -477 -452 -437 -428 -421 -411 -399 -390 -387 -388 -388 -388 -382 -370 -364 -367 -375 -383 -388 -395 -406 -424 -447 -470 -497 -529 -561 -590 -616 -648 -680 -709 -741	-49 -62 -58 -42 -22	-20468 -16684 -14640 -8440 -5864	-11780 -9796 -9212 -6840 -5232	6040 5820 5560 8316 8384
2287	132	444	5	17	312	3	91	0	0	1	-774 -805 -832 -854 -874 -899 -929 -958 -987 -1012 -1029 -1042 -1052 -1062 -1073 -1085 -1094 -1097 -1099 -1105 -1107 -1104 -1102 -1105 -1111 -1122 -1130 -1134 -1136 -1138 -1138 -1141 -1144 -1141 -1136 -1133 -1132 -1134 -1132 -1125 -1111 -1091 -1068 -1040 -1004 -965 -927 -887 -848 -806	-12 -21 -42 -67 -79	-5376 -4856 -5540 -14672 -16164	-4024 -4224 -4780 -14980 -10396	8640 8956 7752 7628 6796
2288	132	444	5	17	312	3	91	0	0	0	-760 -718 -673 -620 -562 -494 -412 -329 -269 -256 -307 -396 -473 -518 -536 -531 -519 -511 -497 -473 -457 -460 -470 -482 -498 -511 -513 -508 -506 -505 -504 -504 -508 -512 -512 -512 -515 -517 -523 -529 -531 -533 -534 -536 -541 -545 -540 -518 -489 -469	-74 -56 -32 -14 -14	-13256 -10128 -7632 -6224 -5748	-12512 -6332 -4948 -3940 -3080	5696 7704 8096 8472 9088
2289	132	444	5	17	312	3	91	0	0	0	-470 -496 -522 -523 -495 -460 -433 -427 -439 -458 -481 -508 -528 -520 -480 -431 -398 -391 -396 -397 -390 -384 -379 -370 -353 -333 -310 -281 -248 -210 -164 -125 -104 -100 -113 -124 -117 -96 -81 -77 -76 -68 -51 -35 -20 -3 3 -6 -20 -41	-30 -55 -71 -73 -62	-5572 -13080 -14656 -14996 -12200	-2944 -6620 -12984 -8388 -8628	9024 7708 6912 6520 6132
2290	132	804	5	17	312	3	91	0	0	0	-74 -96 -101 -109 -117 -112 -106 -99 -88 -83 -86 -94 -100 -95 -75 -56 -42 -21 16 69 131 184 206 182 118 52 10 -6 -7 0 11 26 55 106 156 177 179 174 155 139 134 122 104 102 139 205 258 281 290 294	-40 -12 4 4 1	-7960 -5624 -5208 -4900 -6588	-6080 -4200 -4080 -4692 -6540	8512 8756 8584 8492 6852
2291	132	804	5	17	312	3	91	0	0	2	307 330 353 372 389 412 442 478 520 566 618 676 745 817 877 924 963 1000 1035 1060 1078 1093 1117 1145 1161 1165 1172 1181 1193 1205 1215 1222 1229 1240 1250 1256 1262 1267 1261 1242 1221 1211 1206 1203 1201 1198 1196 1196 1193 1181	-6 -5 7 31 52	-13612 -12644 -11932 -8916 -7332	-14104 -13904 -10680 -5968 -4220	7540 7512 6508 7912 8468
2292	132	804	5	17	312	3	91	0	0	0	1164 1157 1159 1158 1147 1133 1112 1086 1066 1053 1045 1039 1032 1016 992 968 949 934 926 923 922 919 910 894 875 858 843 829 826 839 866 903 947 990 1018 1012 951 853 768 725 716 724 736 746 760 784 795 774 740 712	67 64 48 30 23	-6092 -5380 -6236 -20068 -14288	-3560 -3624 -3648 -11892 -10456	9036 9360 8972 6876 6372
2293	132	476	5	17	312	3	91	0	0	1	695 689 690 692 685 674 668 667 668 667 653 636 625 619 612 602 589 575 566 563 563 565 567 560 538 512 494 489 494 497 490 481 475 464 445 430 418 406 393 377 358 345 340 335 323 310 302 299 300 301	28 42 59 67 57	-13684 -10492 -6660 -5800 -5388	-9212 -8216 -4776 -4632 -3920	6392 6468 8504 9076 8808
2294	132	476	5	17	312	3	91	0	0	0	295 282 262 244 236 235 238 241 245 253 270 286 292 292 289 279 263 243 221 206 202 201 198 199 200 201 203 205 210 216 219 218 216 216 213 205 198 192 184 171 153 135 135 158 200 260 330 396 431 403	36 11 -6 -4 12	-4824 -7016 -13116 -13140 -12284	-5040 -7400 -13936 -13544 -11152	9096 7236 6912 6464 5868
2295	132	548	5	17	312	3	91	0	0	0	310 199 109 55 35 30 20 13 21 37 36 21 7 -1 -3 0 -4 -19 -34 -39 -33 -27 -27 -29 -32 -38 -47 -55 -62 -63 -53 -31 -5 13 18 16 13 14 20 29 34 37 39 42 43 45 45 37 24 16	36 59 67 56 31	-11148 -7052 -5976 -5368 -5372	-7596 -4688 -3844 -2480 -2524	6920 8520 8716 9236 8956
2296	132	548	5	17	312	3	91	0	0	2	13 12 11 5 -2 -2 1 3 6 11 15 18 23 33 44 56 66 70 67 59 46 34 24 19 23 26 23 22 19 12 6 1 -2 -7 -20 -36 -47 -54 -55 -59 -73 -89 -107 -121 -127 -129 -128 -122 -113 -103	3 -11 -10 3 21	-17376 -13368 -15948 -11376 -7576	-8880 -13760 -9976 -9480 -5896	8384 7608 6100 6460 8436
