2004	0	716	0	0	0	1	0	0	0	0	-69 -53 -26 7 55 130 205 211 109 -87 -328 -559 -744 -864 -921 -904 -787 -593 -386 -202 -65 17 58 80 96 115 126 128 124 123 124 127 133 138 144 150 153 154 157 164 173 182 186 188 192 200 212 226 238 247	-1443 -1273 -1104 -933 -763	-9736 -9672 -9756 -9680 -9760	-6576 -6540 -6540 -6552 -6520	7928 7888 7832 7816 7840
2005	0	688	0	0	0	1	0	0	0	1	261 285 311 327 339 351 364 381 399 412 420 426 429 425 415 402 388 376 364 342 316 286 254 222 192 163 135 109 85 65 47 33 25 18 9 0 -4 0 6 10 12 15 16 20 28 38 45 48 53 58	-590 -416 -240 -60 121	-9700 -9724 -9720 -9704 -9760	-6552 -6584 -6512 -6536 -6524	7836 7816 7764 7828 7820
2006	85	688	0	0	0	1	0	0	0	0	62 71 83 89 85 83 85 91 99 106 108 109 113 118 122 125 129 133 135 138 146 154 155 152 150 153 162 172 180 184 186 189 191 194 200 210 215 219 231 248 261 267 270 277 287 295 299 297 296 297	304 488 671 853 1034	-9732 -9720 -9736 -9712 -9732	-6540 -6548 -6548 -6560 -6580	7812 7856 7824 7808 7792
2007	85	688	0	13	0	1	0	0	0	0	296 291 282 274 268 261 255 252 250 251 255 259 259 256 252 247 249 257 262 263 265 267 272 284 309 342 383 447 519 523 414 199 -82 -364 -588 -721 -754 -682 -504 -262 -19 183 320 396 428 440 454 473 490 499	1211 1384 1551 1712 1865	-9712 -9720 -9740 -9708 -9720	-6572 -6536 -6564 -6580 -6552	7772 7808 7656 7824 7856
2008	85	688	0	13	320	1	0	0	0	1	504 502 498 494 493 496 497 497 500 507 513 515 515 516 519 524 534 548 555 558 562 567 581 599 616 628 640 658 679 698 712 719 723 723 721 722 716 696 671 643 615 590 562 526 485 445 407 369 331 294	2011 2147 2273 2390 2497	-9736 -9724 -9748 -9748 -9708	-6520 -6516 -6536 -6552 -6568	7808 7864 7852 7836 7808
2009	85	688	0	13	320	1	0	0	0	0	262 235 211 188 168 152 143 141 140 135 129 128 128 131 134 135 136 138 139 140 142 143 145 146 144 143 147 153 154 149 145 140 139 142 143 143 142 143 144 141 138 137 139 139 137 138 139 137 134 132	2595 2686 2768 2843 2909	-9696 -9724 -9712 -9716 -9716	-6548 -6540 -6548 -6524 -6520	7796 7820 7780 7808 7844
2010	85	688	0	13	320	1	0	0	0	0	129 128 132 140 147 147 146 142 138 138 142 144 154 171 182 185 180 176 184 197 201 196 187 177 167 157 149 143 136 129 120 113 110 109 109 110 110 109 108 111 114 113 111 104 98 100 109 122 143 172	2967 3017 3059 3093 3118	-9708 -9740 -9704 -9708 -9720	-6524 -6544 -6548 -6544 -6500	7780 7764 7800 7800 7776
2011	85	688	0	13	320	1	0	0	0	0	206 258 325 337 244 49 -219 -500 -737 -890 -947 -896 -727 -485 -233 -20 129 214 252 267 280 294 306 314 318 319 320 321 322 323 323 324 331 337 339 337 330 330 343 356 363 368 374 381 392 406 422 437 451 468	3135 3143 3146 3142 3136	-9716 -9708 -9736 -9728 -9732	-6540 -6528 -6556 -6524 -6524	7912 7744 7792 7820 7756
2012	85	696	0	13	320	1	96	0	0	1	483 500 519 540 557 562 559 555 552 553 553 544 529 510 487 460 431 400 366 329 289 251 218 190 162 136 117 98 83 74 70 67 65 66 68 72 82 90 95 101 110 116 120 122 130 141 147 152 159 166	3131 3129 3136 3154 3186	-9732 -9736 -9756 -9732 -9732	-6520 -6520 -6468 -6520 -6532	7768 7768 7752 7792 7784
2013	85	696	0	13	320	1	96	0	0	0	173 181 184 182 184 190 196 205 218 229 237 244 248 253 257 262 268 282 298 307 311 317 323 332 343 351 356 363 374 382 388 399 413 425 438 450 456 459 463 468 477 487 494 505 518 530 541 551 561 570	3233 3295 3372 3463 3566	-9732 -9716 -9704 -9728 -9736	-6512 -6476 -6508 -6516 -6436	7756 7768 7740 7776 7756
2014	85	696	0	13	320	1	96	0	0	0	573 578 592 613 635 648 650 645 644 648 645 632 620 611 607 610 615 622 628 632 634 632 633 638 644 647 647 646 647 653 662 672 689 713 740 787 862 899 834 658 396 101 -159 -340 -421 -390 -238 2 261 490	3679 3801 3929 4065 4210	-9660 -9624 -9684 -9764 -9828	-6512 -6660 -6656 -6640 -6404	7716 7780 7840 7828 7908
2015	85	736	0	13	320	1	96	0	0	1	660 764 816 839 858 880 894 891 883 877 877 882 886 885 879 873 873 877 880 882 884 884 883 884 886 888 894 902 906 908 912 920 931 948 963 976 987 996 1005 1012 1013 1007 1000 995 984 967 950 929 903 872	4364 4525 4686 4838 4973	-9828 -9780 -9852 -9804 -9796	-6352 -6428 -6400 -6456 -6460	7812 7864 7780 7748 7752
2016	83	736	0	13	320	1	96	0	0	0	836 802 775 747 714 675 636 598 566 534 499 464 436 419 414 418 424 430 435 440 438 423 400 380 374 381 386 384 381 378 377 374 368 367 372 380 388 395 396 394 391 383 372 364 362 367 370 368 366 363	5083 5162 5214 5244 5261	-9776 -9796 -9680 -9852 -9728	-6444 -6492 -6424 -6468 -6392	7696 7720 7724 7748 7764
2017	83	736	0	13	320	1	96	0	0	0	362 366 369 362 349 342 347 360 365 357 349 346 351 359 360 353 345 346 355 363 361 355 350 345 344 348 351 351 353 364 376 384 385 383 382 387 395 401 404 404 403 397 386 371 362 357 353 344 327 313	5273 5288 5310 5342 5383	-9776 -9732 -9816 -9840 -9760	-6428 -6376 -6364 -6372 -6420	7772 7784 7748 7724 7784
2018	83	736	0	13	320	1	96	0	0	0	306 302 298 294 296 305 316 324 322 314 307 302 308 317 323 334 356 389 427 485 545 537 434 249 15 -214 -399 -522 -578 -554 -433 -243 -40 138 271 349 387 409 435 454 456 446 436 435 442 444 441 445 457 462	5431 5485 5540 5595 5644	-9804 -9816 -9812 -9776 -9824	-6392 -6400 -6372 -6336 -6428	7736 7752 7724 7820 7756
2019	83	736	0	13	320	1	96	0	0	1	441 430 431 440 446 447 450 454 459 464 467 472 483 498 513 523 535 546 556 570 586 600 609 609 599 584 567 553 542 530 516 500 483 460 434 405 375 342 310 280 253 229 206 187 172 159 149 141 134 128	5686 5717 5736 5744 5741	-9760 -9840 -9756 -9756 -9784	-6444 -6432 -6448 -6500 -6412	7860 7796 7868 7840 7888
2020	83	736	0	13	320	1	96	0	0	0	125 123 122 123 125 128 132 132 130 128 128 130 133 135 136 136 137 135 132 130 130 130 130 130 132 130 124 118 114 112 113 111 108 106 109 113 112 110 108 106 104 105 110 113 111 109 108 107 105 102	5729 5709 5683 5654 5626	-9808 -9764 -9752 -9768 -9712	-6360 -6432 -6472 -6528 -6548	7908 7876 7868 7924 7932
2021	83	736	0	13	320	1	96	0	0	0	97 97 107 118 123 127 139 154 162 163 161 157 153 149 142 130 121 119 118 115 110 102 94 89 87 90 91 92 93 92 93 96 95 94 94 95 97 105 126 155 197 267 348 374 297 120 -113 -344 -536 -673	5601 5583 5571 5566 5564	-9720 -9756 -9832 -9796 -9788	-6612 -6456 -6488 -6460 -6536	7948 7844 7828 7824 7804
2022	83	736	0	13	320	1	96	0	0	0	-744 -743 -645 -463 -253 -64 78 164 206 224 236 250 260 266 270 273 276 277 277 279 281 281 282 284 285 286 290 298 304 307 308 309 316 327 339 348 357 368 382 398 413 428 442 456 468 477 481 480 476 472	5558 5542 5512 5463 5394	-9728 -9800 -9724 -9768 -9836	-6560 -6500 -6468 -6468 -6440	7896 7880 7872 7808 7836
2023	83	692	0	13	320	1	96	0	0	1	467 456 441 422 400 377 349 317 284 251 217 189 163 127 90 59 34 16 3 -9 -19 -19 -13 -15 -19 -18 -23 -28 -30 -31 -28 -19 -11 -10 -11 -8 1 5 1 -3 -7 -11 -10 -10 -12 -12 -7 -8 -15 -20	5305 5199 5081 4957 4830	-9764 -9764 -9844 -9844 -9820	-6432 -6424 -6352 -6348 -6404	7904 8012 7920 7880 7892
2024	83	692	0	13	320	1	96	0	0	0	-21 -14 -3 1 -5 -7 -2 3 3 -3 -11 -15 -12 -7 -7 -8 -5 -2 -1 -2 -3 -1 3 6 8 9 13 18 25 36 49 61 67 67 66 70 77 83 84 79 72 66 62 56 46 34 20 8 1 2	4706 4587 4470 4352 4226	-9860 -9844 -9852 -9828 -9844	-6372 -6400 -6304 -6364 -6344	7808 7800 7760 7820 7748
2025	83	692	0	13	320	1	96	0	0	0	5 7 9 10 6 -1 -3 0 3 3 2 0 3 10 18 31 54 83 135 213 252 189 19 -236 -515 -763 -941 -1027 -1016 -892 -675 -433 -215 -50 52 102 125 140 154 165 171 175 182 185 180 170 168 177 186 186	4086 3925 3740 3530 3297	-9876 -9880 -9820 -9920 -9824	-6276 -6228 -6260 -6196 -6244	7756 7712 7704 7816 7756
2026	84	708	0	13	320	1	96	0	0	1	181 175 173 179 186 188 187 187 194 204 214 224 233 242 252 264 275 286 299 315 336 360 372 372 366 357 351 347 341 327 306 283 255 226 196 160 117 71 30 1 -23 -56 -96 -134 -163 -181 -189 -194 -199 -206	3046 2782 2510 2234 1957	-9868 -9924 -9876 -9884 -9860	-6264 -6232 -6208 -6160 -6208	7740 7808 7752 7736 7772
2027	84	708	0	13	320	1	96	0	0	0	-213 -220 -225 -230 -234 -236 -230 -219 -216 -220 -225 -226 -221 -218 -223 -230 -233 -230 -222 -218 -224 -235 -243 -254 -261 -261 -263 -268 -270 -269 -270 -275 -282 -286 -287 -285 -287 -295 -305 -314 -322 -326 -329 -329 -327 -324 -322 -327 -336 -343	1679 1404 1132 865 605	-9880 -9856 -9804 -9884 -9844	-6276 -6288 -6212 -6184 -6264	7744 7732 7736 7712 7772
2028	84	708	0	13	320	1	96	0	0	0	-346 -348 -347 -342 -347 -359 -369 -374 -372 -361 -349 -344 -346 -351 -354 -348 -341 -340 -345 -355 -359 -358 -366 -385 -406 -425 -436 -440 -445 -451 -454 -455 -457 -461 -465 -468 -471 -475 -479 -484 -489 -495 -498 -494 -486 -474 -454 -430 -390 -320	352 108 -129 -360 -588	-9820 -9868 -9892 -9840 -9872	-6272 -6280 -6180 -6208 -6196	7836 7724 7688 7768 7588
2029	84	708	0	13	320	1	96	0	0	0	-270 -316 -474 -723 -1009 -1270 -1467 -1574 -1579 -1467 -1253 -1003 -775 -598 -487 -429 -398 -378 -362 -353 -354 -359 -361 -356 -347 -339 -339 -343 -347 -353 -353 -345 -339 -338 -342 -348 -350 -350 -341 -328 -322 -319 -308 -291 -275 -263 -255 -247 -233 -215	-817 -1051 -1295 -1550 -1818	-9888 -9844 -9932 -9888 -9900	-6176 -6252 -6172 -6232 -6268	7640 7768 7700 7788 7736
2030	84	724	0	13	320	1	96	0	0	1	-198 -181 -167 -156 -158 -171 -180 -184 -188 -194 -208 -236 -268 -296 -317 -338 -367 -404 -444 -482 -517 -548 -576 -604 -627 -644 -658 -669 -673 -674 -676 -677 -678 -678 -676 -673 -668 -660 -654 -650 -646 -643 -639 -636 -634 -633 -632 -630 -628 -625	-2098 -2386 -2676 -2962 -3237	-9892 -9928 -9912 -9808 -9860	-6172 -6152 -6196 -6256 -6228	7764 7752 7756 7740 7764
2031	84	724	0	13	320	1	96	0	0	0	-624 -622 -621 -620 -620 -621 -622 -622 -620 -618 -618 -618 -616 -614 -611 -610 -608 -605 -604 -603 -602 -602 -598 -595 -595 -597 -598 -596 -595 -593 -591 -589 -586 -584 -582 -581 -578 -576 -573 -571 -570 -568 -564 -560 -553 -539 -526 -518 -516 -517	-3498 -3740 -3958 -4150 -4310	-9920 -9844 -9860 -9880 -9880	-6200 -6280 -6240 -6264 -6244	7696 7676 7728 7676 7580
2032	84	724	0	13	320	1	96	0	0	0	-514 -504 -492 -484 -481 -483 -486 -489 -495 -504 -509 -511 -511 -511 -511 -512 -512 -510 -507 -505 -504 -500 -497 -494 -490 -484 -480 -476 -472 -467 -457 -434 -400 -362 -311 -234 -166 -173 -281 -474 -699 -904 -1065 -1167 -1207 -1170 -1043 -862 -675 -506	-4432 -4511 -4542 -4519 -4436	-9812 -9808 -9840 -9712 -9704	-6288 -6328 -6352 -6364 -6300	7612 7656 7688 7636 7736
2033	84	744	0	13	320	1	96	0	0	1	-376 -295 -251 -230 -220 -209 -199 -191 -182 -171 -161 -150 -141 -137 -137 -136 -132 -122 -113 -108 -106 -102 -94 -84 -78 -72 -64 -54 -42 -27 -13 -1 11 24 40 56 74 95 109 114 114 109 103 97 88 75 60 48 33 12	-4294 -4092 -3837 -3541 -3223	-9800 -9684 -9740 -9668 -9636	-6224 -6340 -6520 -6468 -6504	7652 7616 7632 7660 7636
2034	84	744	0	13	320	1	96	0	0	0	-13 -41 -70 -98 -127 -156 -186 -215 -239 -262 -284 -304 -320 -331 -337 -336 -337 -346 -358 -366 -368 -367 -365 -366 -369 -368 -360 -349 -341 -334 -326 -327 -339 -352 -357 -361 -367 -373 -380 -387 -386 -380 -375 -369 -365 -367 -375 -385 -388 -380	-2900 -2592 -2314 -2079 -1894	-9708 -9732 -9740 -9724 -9816	-6508 -6568 -6468 -6544 -6568	7692 7664 7796 7752 7732
2035	84	744	0	13	320	1	96	0	0	0	-377 -382 -388 -398 -407 -411 -413 -415 -419 -427 -432 -428 -417 -414 -421 -429 -435 -436 -436 -441 -449 -453 -451 -447 -443 -433 -421 -409 -407 -413 -419 -417 -413 -412 -412 -417 -424 -430 -438 -448 -459 -467 -471 -474 -477 -480 -481 -484 -490 -494	-1768 -1706 -1715 -1795 -1944	-9764 -9708 -9732 -9768 -9784	-6524 -6520 -6484 -6528 -6508	7764 7768 7760 7844 7896
2036	84	744	0	13	320	1	96	0	0	0	-491 -487 -489 -493 -495 -493 -485 -479 -478 -479 -471 -447 -418 -390 -340 -266 -239 -315 -496 -755 -1036 -1281 -1450 -1520 -1478 -1316 -1074 -820 -596 -431 -338 -296 -273 -255 -242 -233 -232 -232 -225 -211 -205 -205 -202 -196 -193 -193 -189 -183 -180 -177	-2156 -2416 -2708 -3014 -3320	-9800 -9868 -9800 -9772 -9712	-6452 -6412 -6444 -6540 -6524	7892 7864 7996 7944 7936
2037	84	716	0	13	320	1	96	0	0	1	-173 -166 -158 -149 -137 -124 -111 -102 -92 -78 -61 -44 -25 -6 14 33 50 64 74 83 91 96 95 90 79 65 48 27 4 -24 -55 -88 -121 -157 -194 -231 -265 -295 -320 -342 -360 -375 -389 -398 -404 -408 -409 -410 -411 -409	-3611 -3880 -4120 -4328 -4504	-9796 -9760 -9728 -9764 -9804	-6552 -6524 -6488 -6528 -6548	7928 7872 7940 7928 7916
2038	84	716	0	13	320	1	96	0	0	0	-406 -402 -396 -389 -385 -380 -375 -369 -363 -358 -351 -345 -341 -337 -334 -332 -330 -328 -327 -327 -325 -325 -323 -320 -318 -317 -316 -315 -316 -315 -312 -309 -307 -306 -306 -306 -304 -299 -294 -291 -289 -287 -285 -280 -274 -269 -264 -261 -260 -257	-4645 -4751 -4819 -4848 -4835	-9780 -9768 -9816 -9764 -9728	-6468 -6500 -6460 -6520 -6520	7880 7876 7868 7928 7928
2039	84	716	0	13	320	1	96	0	0	0	-254 -251 -249 -247 -245 -238 -228 -213 -198 -189 -185 -183 -177 -166 -155 -148 -146 -147 -147 -149 -155 -164 -172 -175 -176 -178 -180 -182 -182 -181 -180 -179 -177 -175 -173 -171 -169 -166 -165 -164 -163 -159 -149 -126 -96 -67 -24 48 91 32	-4780 -4686 -4556 -4396 -4214	-9752 -9764 -9744 -9756 -9756	-6560 -6556 -6592 -6580 -6536	7936 7936 7888 7892 7900
2040	84	716	0	13	320	1	96	0	0	0	-141 -405 -709 -985 -1184 -1279 -1255 -1101 -848 -571 -324 -137 -18 46 75 90 106 123 134 140 146 152 153 155 158 161 162 164 170 176 181 184 186 191 198 203 210 218 228 240 252 265 278 292 309 327 346 365 381 395	-4015 -3807 -3596 -3386 -3181	-9760 -9672 -9732 -9692 -9792	-6512 -6556 -6548 -6504 -6540	7812 7848 7828 7780 7876
2041	84	728	0	13	320	1	96	0	0	1	405 412 416 415 412 407 397 384 370 352 330 302 271 237 200 164 127 89 51 16 -13 -38 -59 -76 -88 -96 -100 -101 -102 -104 -103 -100 -95 -89 -83 -78 -74 -70 -67 -63 -58 -55 -53 -51 -48 -45 -43 -41 -40 -39	-2981 -2788 -2600 -2414 -2230	-9716 -9660 -9760 -9720 -9760	-6600 -6536 -6484 -6544 -6560	7864 7844 7924 7900 7860
2042	84	728	0	13	320	1	96	0	0	0	-38 -36 -35 -34 -32 -30 -29 -25 -23 -22 -21 -19 -11 -6 -6 -10 -13 -13 -11 -8 -10 -13 -10 -4 4 9 9 6 3 3 5 7 9 11 13 17 25 37 50 60 65 67 68 75 86 94 94 90 86 81	-2048 -1869 -1696 -1530 -1374	-9732 -9776 -9756 -9692 -9732	-6544 -6548 -6536 -6516 -6596	7860 7800 7800 7720 7776
2043	84	728	0	13	320	1	96	0	0	0	63 52 43 37 35 31 28 25 25 24 23 21 20 20 21 23 24 24 24 25 28 34 46 69 100 138 201 281 314 247 81 -142 -367 -560 -696 -774 -789 -711 -551 -363 -185 -37 64 120 146 162 174 183 192 199	-1231 -1103 -992 -899 -823	-9632 -9596 -9704 -9656 -9592	-6572 -6660 -6632 -6632 -6652	7688 7696 7696 7772 7788
2044	84	728	0	13	320	1	96	0	0	1	202 206 207 205 203 204 205 210 218 223 226 231 236 240 247 252 259 270 282 294 306 319 331 339 347 364 382 393 405 415 425 435 444 448 449 449 447 440 427 407 384 361 343 326 303 278 249 220 199 186	-762 -715 -675 -638 -600	-9688 -9700 -9688 -9648 -9672	-6532 -6652 -6668 -6632 -6620	7804 7752 7772 7816 7736
2045	84	728	0	13	320	1	96	0	0	0	172 156 139 122 110 105 109 114 117 119 123 128 132 136 142 152 166 175 177 176 175 180 191 203 215 225 232 236 237 233 230 235 247 260 268 269 269 274 284 295 300 305 313 320 322 322 322 327 339 350	-555 -501 -436 -359 -272	-9636 -9648 -9656 -9624 -9676	-6584 -6632 -6660 -6632 -6484	7756 7660 7728 7688 7680
2046	84	728	0	13	320	1	96	0	0	0	359 367 373 375 381 392 406 414 422 435 452 469 481 487 495 509 524 534 536 535 536 535 531 523 516 514 516 520 524 523 524 531 538 544 550 554 559 564 566 564 567 580 591 597 611 637 674 728 802 865	-175 -70 40 154 269	-9700 -9664 -9656 -9700 -9692	-6616 -6568 -6544 -6556 -6568	7720 7648 7656 7692 7624
2047	84	728	0	16	320	1	96	0	0	0	852 737 526 257 -5 -208 -325 -344 -254 -66 172 402 580 698 766 799 814 822 830 838 845 853 857 858 865 873 872 869 868 871 878 886 894 897 901 906 910 913 917 921 925 933 949 971 988 1000 1014 1030 1048 1065	382 493 598 698 794	-9644 -9680 -9664 -9660 -9724	-6608 -6568 -6536 -6564 -6544	7532 7740 7724 7676 7656
2048	84	684	0	16	320	1	96	0	0	1	1079 1087 1091 1093 1093 1090 1084 1075 1062 1043 1019 991 961 932 900 860 817 775 735 701 667 634 603 577 558 541 527 516 507 499 496 497 497 497 496 491 487 485 484 484 482 484 489 490 484 478 472 471 473 474	886 976 1063 1149 1233	-9668 -9708 -9700 -9632 -9680	-6536 -6556 -6540 -6560 -6548	7704 7664 7672 7608 7648
2049	84	684	0	16	320	1	96	0	0	0	467 460 457 457 457 449 436 424 419 426 433 433 430 421 412 406 405 408 410 413 411 400 392 389 389 391 393 393 390 385 385 397 417 429 424 413 406 411 424 431 423 408 398 393 385 371 354 341 335 336	1315 1397 1480 1564 1651	-9712 -9732 -9708 -9772 -9744	-6468 -6448 -6472 -6480 -6544	7664 7668 7708 7704 7680
2050	84	684	0	16	320	1	96	0	0	0	334 325 311 300 298 301 303 300 297 294 294 296 296 294 292 290 295 311 338 372 423 493 520 446 269 12 -272 -526 -709 -794 -769 -627 -395 -147 65 224 321 366 386 398 411 419 421 423 429 433 432 429 426 424	1737 1820 1895 1955 1998	-9716 -9704 -9720 -9664 -9796	-6556 -6556 -6500 -6516 -6496	7696 7680 7796 7724 7724
2051	84	688	0	16	320	1	96	0	0	1	425 429 430 427 426 428 431 436 437 434 431 430 437 452 465 475 486 497 511 528 544 556 563 573 589 603 602 590 578 565 551 537 519 496 471 444 409 367 324 285 253 224 191 153 118 89 69 53 38 28	2020 2023 2010 1985 1951	-9772 -9808 -9716 -9708 -9724	-6456 -6492 -6512 -6508 -6560	7704 7732 7700 7688 7708
2052	84	688	0	16	320	1	96	0	0	0	20 15 12 8 5 9 17 23 22 19 17 15 16 19 21 19 15 13 15 20 20 20 20 17 19 25 24 19 17 18 20 19 16 7 -6 -10 -10 -9 -6 0 5 6 4 -1 -6 -4 1 4 5 -3	1910 1865 1813 1756 1692	-9696 -9680 -9728 -9728 -9732	-6536 -6496 -6528 -6528 -6440	7708 7760 7684 7688 7712
2053	84	688	0	16	320	1	96	0	0	0	-11 -14 -12 -6 -1 4 12 20 24 25 24 25 34 49 54 45 36 33 29 24 18 7 -5 -16 -28 -38 -40 -34 -32 -36 -40 -43 -44 -43 -42 -41 -40 -41 -45 -48 -47 -39 -20 7 37 81 155 209 174 28	1623 1549 1473 1395 1317	-9760 -9748 -9700 -9744 -9704	-6456 -6488 -6488 -6548 -6540	7704 7668 7712 7680 7552
2054	84	688	0	16	320	1	96	0	0	0	-211 -498 -768 -973 -1084 -1091 -979 -772 -529 -297 -109 10 66 86 92 104 121 134 140 142 142 139 134 130 130 130 131 132 130 129 132 137 145 154 161 170 177 177 177 179 190 207 222 233 244 258 276 294 312 323	1237 1156 1074 992 912	-9728 -9692 -9748 -9776 -9744	-6448 -6528 -6448 -6368 -6416	7608 7680 7716 7660 7732
2055	84	704	0	16	320	1	96	0	0	1	322 316 311 306 304 299 288 271 249 222 189 154 123 91 55 20 -12 -46 -80 -110 -135 -153 -167 -184 -204 -220 -227 -229 -230 -230 -226 -220 -214 -215 -220 -221 -223 -221 -212 -205 -214 -226 -235 -239 -234 -222 -212 -207 -210 -215	837 769 710 659 613	-9744 -9752 -9728 -9724 -9680	-6512 -6556 -6548 -6460 -6468	7684 7720 7780 7780 7816
2056	84	704	0	16	320	1	96	0	0	0	-217 -207 -191 -184 -196 -217 -234 -234 -223 -217 -221 -231 -239 -243 -244 -239 -228 -216 -210 -213 -219 -225 -227 -228 -228 -228 -226 -217 -200 -182 -170 -166 -166 -163 -156 -149 -146 -149 -155 -160 -164 -165 -164 -165 -169 -175 -183 -190 -192 -189	570 526 481 432 381	-9788 -9796 -9772 -9748 -9784	-6444 -6416 -6408 -6480 -6464	7740 7804 7772 7808 7876
2057	84	704	0	16	320	1	96	0	0	0	-185 -182 -178 -174 -175 -176 -172 -157 -139 -135 -142 -151 -152 -137 -105 -64 -20 40 125 186 162 39 -153 -368 -566 -721 -815 -845 -792 -653 -464 -273 -111 8 79 112 130 146 158 166 176 188 201 215 234 252 259 260 264 274	329 277 228 185 151	-9796 -9764 -9808 -9780 -9784	-6424 -6404 -6432 -6396 -6448	7928 7832 8016 7996 7968
2058	84	688	0	16	320	1	96	0	0	1	291 306 317 328 339 349 357 365 377 396 410 421 434 450 473 498 522 545 566 581 594 607 621 634 642 646 642 634 629 628 627 618 596 570 549 531 513 482 445 413 392 380 371 360 350 342 338 342 349 350	130 125 138 171 226	-9808 -9780 -9760 -9772 -9740	-6432 -6428 -6480 -6476 -6572	7936 7956 7964 7948 8044
2059	84	688	0	16	320	1	96	0	0	0	345 338 336 348 364 370 364 358 361 375 386 388 388 390 394 400 403 404 406 412 419 425 431 433 430 429 426 421 420 425 432 431 421 410 404 409 424 434 432 427 427 431 437 435 422 409 404 408 425 445	304 402 521 657 807	-9688 -9620 -9588 -9484 -9488	-6564 -6644 -6704 -6852 -6948	7996 8044 8072 7976 8028
2060	84	688	0	16	320	1	96	0	0	0	460 466 464 462 468 489 505 498 479 457 444 443 444 437 423 408 398 389 384 383 385 386 383 379 375 370 365 364 366 362 354 346 339 340 357 387 421 459 524 591 583 467 252 -24 -304 -533 -676 -715 -633 -440	968 1138 1318 1504 1697	-9788 -9776 -9384 -9284 -9392	-7056 -6980 -6832 -6736 -6780	7876 7728 7944 7988 8040
2061	84	680	0	16	320	1	96	0	0	1	-195 38 224 347 413 443 455 467 479 483 483 483 483 480 475 474 483 493 493 484 477 473 469 464 462 464 470 479 487 495 510 530 542 541 542 550 569 592 610 627 640 644 640 635 632 632 630 621 604 583	1893 2090 2286 2479 2668	-9516 -9588 -9592 -9624 -9532	-6812 -6924 -6796 -6752 -6780	8008 8020 7856 7900 7976
2062	84	680	0	16	320	1	96	0	0	0	560 535 504 469 433 401 368 326 286 252 215 176 140 111 87 73 64 55 45 42 47 55 54 48 47 46 47 51 56 58 60 64 64 62 59 59 61 62 61 63 66 66 63 60 61 63 62 59 58 56	2852 3030 3199 3358 3505	-9816 -10176 -10320 -10296 -10028	-6988 -6872 -6624 -6552 -6456	7984 8068 8268 8264 8248
2063	84	680	0	16	320	1	96	0	0	0	50 47 53 61 63 55 38 23 19 23 28 31 40 54 64 65 64 70 81 90 92 90 92 104 117 124 120 112 103 97 90 80 68 57 48 38 28 26 29 26 17 7 0 1 10 16 17 17 19 21	3637 3748 3835 3896 3935	-9628 -9824 -10024 -10240 -10044	-5716 -5672 -5968 -6200 -6220	8388 8404 8252 8116 8132
2064	84	680	0	16	320	1	96	0	0	0	24 32 47 68 93 121 167 246 308 276 134 -98 -372 -630 -838 -965 -996 -912 -718 -478 -247 -53 78 147 173 186 204 218 224 227 231 234 236 233 229 229 234 240 244 247 254 266 273 270 262 257 259 269 284 297	3952 3951 3933 3899 3849	-9876 -9860 -9900 -9908 -9920	-5832 -5864 -5920 -5996 -5952	7972 8044 7992 7928 7880
2065	84	676	0	16	320	1	96	0	0	1	307 320 336 351 364 377 392 405 419 435 450 460 460 450 438 425 416 410 393 364 332 301 276 250 214 169 122 85 63 48 27 0 -27 -48 -60 -64 -66 -72 -78 -82 -83 -82 -80 -77 -74 -71 -70 -69 -68 -66	3784 3708 3624 3536 3448	-9960 -9876 -9820 -9872 -9888	-5972 -6188 -6140 -6100 -6252	7812 7784 7776 7760 7660
2066	85	676	0	16	320	1	96	0	0	0	-63 -60 -57 -54 -52 -48 -45 -48 -54 -61 -66 -65 -61 -56 -51 -46 -46 -56 -68 -79 -84 -79 -72 -67 -64 -62 -59 -56 -54 -53 -50 -48 -44 -36 -22 -10 -5 -2 -1 5 16 18 9 -2 -1 7 2 -17 -44 -71	3365 3290 3225 3172 3128	-9924 -10092 -10236 -10084 -9816	-6488 -6648 -6504 -6676 -6856	7628 7608 7764 7944 7960
2067	85	676	0	15	320	1	96	0	0	0	-82 -77 -82 -92 -96 -82 -69 -70 -78 -91 -103 -104 -99 -99 -103 -102 -97 -94 -88 -64 -22 30 98 178 202 114 -72 -304 -527 -715 -856 -943 -964 -889 -725 -530 -347 -193 -88 -32 -9 1 12 24 33 37 36 33 31 30	3087 3043 2990 2923 2843	-9632 -9456 -9432 -9632 -9716	-6688 -6384 -6748 -7012 -7024	8132 8192 8180 8220 7856
2068	85	664	0	15	320	1	96	0	0	1	28 25 23 19 16 16 15 10 5 5 8 13 18 21 23 26 34 48 62 71 79 86 91 94 92 89 90 93 95 93 85 72 58 41 19 -8 -35 -60 -85 -120 -162 -203 -239 -271 -298 -324 -351 -376 -397 -418	2749 2640 2517 2381 2230	-9568 -9356 -9292 -9372 -9460	-6760 -6584 -6728 -6892 -6912	7840 7824 7804 7792 7676
2069	85	664	0	15	320	1	96	0	0	0	-439 -454 -465 -472 -478 -484 -491 -496 -500 -504 -508 -511 -515 -522 -532 -545 -555 -559 -562 -571 -583 -592 -600 -604 -607 -615 -624 -630 -633 -638 -647 -660 -674 -686 -694 -699 -702 -708 -714 -715 -715 -722 -729 -729 -723 -714 -710 -714 -716 -713	2064 1883 1689 1483 1268	-9392 -9396 -9360 -9460 -9564	-6860 -6684 -6696 -6724 -6828	7664 7652 7700 7660 7716
2070	85	664	0	15	320	1	96	0	0	0	-709 -711 -721 -734 -742 -746 -752 -764 -779 -794 -806 -814 -821 -826 -832 -836 -838 -840 -843 -845 -847 -850 -853 -855 -857 -859 -861 -865 -869 -865 -846 -814 -768 -696 -615 -588 -662 -836 -1071 -1307 -1506 -1647 -1728 -1739 -1655 -1487 -1287 -1103 -962 -878	1047 829 617 418 229	-9908 -9964 -10264 -10584 -9984	-7092 -6924 -6924 -6968 -6188	7632 7608 7808 7952 8028
2071	85	648	0	15	320	1	96	0	0	1	-840 -827 -820 -811 -803 -797 -793 -789 -787 -787 -789 -789 -786 -782 -775 -769 -767 -767 -765 -760 -753 -744 -737 -729 -719 -707 -696 -686 -674 -661 -645 -627 -608 -589 -573 -557 -543 -530 -518 -510 -510 -514 -520 -528 -537 -551 -571 -596 -622 -650	49 -131 -315 -505 -694	-9440 -9312 -9488 -9956 -9960	-5796 -5636 -5824 -6212 -6168	8240 8408 8244 8108 7952
2072	85	648	0	15	320	2	96	0	0	0	-680 -713 -744 -773 -802 -828 -849 -867 -882 -894 -905 -914 -917 -918 -918 -918 -918 -913 -905 -897 -890 -882 -874 -865 -856 -847 -839 -832 -824 -814 -804 -796 -790 -785 -783 -781 -779 -772 -764 -756 -748 -743 -740 -737 -734 -731 -725 -719 -712 -706	-875 -1025 -1120 -1149 -1109	-9692 -9708 -9820 -9756 -9608	-5996 -5944 -6028 -6292 -6132	7904 7816 7860 7896 7804
2073	85	648	0	15	320	2	96	0	0	0	-702 -698 -692 -686 -676 -662 -647 -634 -626 -624 -620 -609 -594 -582 -578 -582 -583 -582 -583 -590 -602 -612 -614 -612 -611 -612 -612 -608 -601 -596 -592 -590 -589 -586 -581 -576 -571 -565 -561 -557 -554 -544 -523 -493 -451 -382 -288 -242 -305 -481	-1003 -848 -665 -468 -269	-9676 -9644 -9744 -9708 -10012	-6180 -6368 -6792 -6648 -7192	7832 7892 7760 7516 7564
2074	85	648	0	15	320	2	96	0	0	0	-733 -993 -1220 -1400 -1521 -1563 -1491 -1305 -1067 -832 -635 -504 -434 -403 -392 -381 -367 -359 -356 -349 -343 -339 -337 -337 -339 -339 -334 -324 -308 -297 -301 -309 -313 -314 -307 -299 -289 -281 -273 -261 -250 -241 -228 -212 -197 -180 -161 -142 -129 -122	-75 108 277 428 562	-10252 -10060 -9372 -8976 -9072	-7108 -7104 -7064 -6832 -6896	7668 7784 8008 8352 8304
2075	85	648	0	15	320	2	96	0	0	1	-117 -110 -107 -111 -120 -134 -150 -168 -189 -215 -242 -264 -286 -318 -357 -392 -423 -455 -489 -520 -547 -564 -574 -584 -596 -605 -609 -610 -608 -608 -610 -612 -609 -601 -590 -583 -582 -581 -576 -569 -561 -555 -553 -551 -547 -540 -532 -521 -515 -518	680 785 879 965 1043	-9308 -9624 -9396 -8948 -9264	-7132 -7160 -6924 -6876 -7076	8136 8088 8044 8044 7980
2076	87	648	0	15	320	2	96	0	0	0	-522 -526 -526 -522 -516 -510 -505 -500 -500 -500 -497 -491 -486 -485 -483 -477 -475 -477 -474 -466 -454 -440 -434 -434 -425 -404 -383 -374 -376 -382 -386 -386 -387 -395 -408 -417 -423 -432 -439 -443 -443 -439 -432 -429 -432 -435 -434 -432 -430 -426	1115 1180 1238 1289 1333	-9472 -9408 -9192 -9184 -9396	-7044 -6896 -6860 -6896 -6936	7844 7808 7780 7756 7668
2077	87	648	0	15	320	2	96	0	0	0	-419 -411 -411 -413 -410 -400 -376 -338 -293 -227 -141 -97 -156 -323 -559 -800 -1016 -1190 -1299 -1335 -1268 -1096 -872 -651 -463 -330 -255 -220 -199 -176 -155 -146 -143 -142 -143 -141 -134 -121 -112 -109 -110 -115 -116 -109 -100 -93 -88 -84 -78 -70	1371 1404 1432 1456 1477	-9532 -9596 -9688 -10252 -10232	-7000 -7136 -7072 -7136 -7000	7508 7596 7612 7680 7848
2078	87	656	0	15	320	2	96	0	0	1	-58 -45 -32 -17 -1 15 32 50 67 82 100 118 132 145 154 155 155 157 154 145 131 116 96 74 52 28 1 -29 -58 -84 -112 -144 -178 -210 -235 -250 -262 -274 -285 -292 -294 -295 -296 -295 -293 -292 -290 -285 -280 -275	1495 1509 1518 1523 1523	-10376 -10064 -9696 -9696 -9988	-6788 -6280 -5872 -6112 -6412	8052 8168 8504 8396 8060
2079	87	656	0	15	320	2	96	0	0	0	-272 -269 -266 -263 -260 -257 -254 -252 -249 -246 -243 -241 -239 -236 -235 -235 -233 -230 -227 -222 -217 -215 -217 -219 -220 -215 -208 -204 -205 -209 -211 -207 -198 -184 -171 -161 -155 -151 -146 -134 -116 -104 -102 -107 -113 -116 -118 -121 -128 -134	1520 1516 1509 1502 1496	-9856 -9488 -9648 -9784 -9936	-6196 -5840 -5972 -6128 -6152	8100 8016 7976 7836 7716
2080	87	656	0	15	320	2	96	0	0	0	-137 -138 -137 -134 -130 -127 -125 -120 -112 -103 -95 -89 -83 -75 -64 -52 -42 -34 -23 -4 24 62 108 172 266 361 389 309 131 -86 -288 -462 -597 -683 -699 -615 -439 -226 -14 169 297 370 413 445 480 515 544 569 594 618	1489 1481 1475 1469 1463	-9692 -9520 -9600 -9940 -9908	-6088 -6212 -6168 -6316 -6380	7672 7656 7460 7324 7360
2081	87	660	0	15	320	2	96	0	0	1	639 660 684 711 738 766 793 822 852 879 905 935 967 997 1026 1057 1093 1136 1180 1216 1244 1273 1305 1341 1380 1418 1457 1496 1534 1566 1590 1610 1627 1638 1640 1638 1634 1631 1629 1620 1602 1578 1554 1531 1511 1494 1476 1458 1441 1422	1458 1454 1452 1449 1445	-9980 -10588 -10404 -10664 -9168	-6684 -7200 -7156 -6956 -6676	7080 7316 7596 7880 8400
2082	87	660	0	15	320	2	96	0	0	0	1404 1390 1380 1373 1369 1367 1364 1359 1354 1351 1348 1346 1345 1344 1341 1339 1336 1333 1329 1328 1326 1325 1321 1311 1299 1287 1275 1264 1250 1234 1223 1219 1221 1226 1228 1219 1201 1184 1172 1167 1161 1147 1131 1120 1114 1113 1116 1120 1123 1124	1437 1426 1411 1394 1374	-9148 -9444 -9688 -9708 -8740	-6816 -6824 -6680 -6440 -6320	8548 8112 7868 8016 7920
2083	87	660	0	15	320	2	96	0	0	0	1121 1119 1119 1118 1112 1099 1085 1072 1061 1045 1025 1002 981 967 959 949 937 923 907 893 884 877 873 869 861 851 841 832 824 818 811 809 820 844 878 927 1005 1084 1096 1001 804 554 308 95 -67 -172 -202 -127 41 246	1354 1334 1315 1296 1277	-8720 -9248 -9464 -9224 -9608	-6520 -6672 -6660 -6428 -6608	7840 7548 7420 7528 7212
2084	87	648	0	15	320	2	96	0	0	1	445 607 707 754 772 781 789 796 797 795 793 791 786 779 771 763 756 751 748 746 745 745 743 742 742 742 742 743 748 758 773 790 805 818 828 837 845 854 862 868 873 876 876 871 863 850 833 811 787 761	1260 1245 1231 1219 1206	-9880 -10048 -11104 -10612 -9924	-7048 -7296 -6948 -6700 -6032	7316 6972 7400 7912 8168
2085	87	648	0	15	320	2	96	0	0	0	732 703 670 633 594 555 517 481 447 417 388 363 342 325 311 299 289 279 271 265 263 262 259 258 257 256 259 263 264 263 262 261 260 258 256 254 253 252 251 246 242 237 233 231 229 227 226 225 224 226	1192 1174 1153 1130 1106	-9748 -9792 -9412 -9424 -8920	-5552 -6036 -6144 -5944 -5860	8640 8188 8012 7848 7716
2086	90	648	0	15	320	2	96	0	0	0	228 229 231 237 247 254 254 252 256 265 274 274 264 252 244 238 230 218 207 199 193 186 180 177 175 171 165 161 161 163 168 172 173 171 169 167 164 163 164 175 200 234 281 360 446 465 371 165 -105 -362	1083 1062 1044 1029 1015	-8768 -9536 -9684 -9444 -9716	-5680 -6204 -6232 -6068 -6584	7840 7392 7356 7516 7232
2087	90	648	0	15	320	2	96	0	0	0	-578 -740 -837 -855 -764 -572 -340 -114 70 190 252 282 299 317 332 339 341 345 349 348 345 345 346 347 345 342 339 339 341 344 347 350 354 357 363 371 381 395 409 422 436 451 466 484 503 521 534 542 546 544	1005 998 993 988 983	-10488 -11276 -10224 -10396 -9528	-6712 -7504 -7748 -7592 -7108	6888 6868 7088 7500 8076
2088	90	624	0	15	321	2	96	0	0	1	540 536 528 515 497 476 449 418 385 350 313 274 238 204 170 138 109 85 65 50 37 26 18 14 14 16 18 22 26 32 39 47 55 61 64 64 63 62 63 68 74 81 84 78 67 55 45 40 39 39	976 965 951 935 917	-9028 -9240 -9232 -9068 -8248	-7396 -7068 -6284 -6056 -6500	8404 7924 7864 8028 7884
2089	90	624	0	15	321	2	96	0	0	0	39 42 43 42 39 37 37 39 41 44 52 64 78 87 90 93 99 109 116 117 113 109 105 101 92 79 67 60 56 50 43 39 39 39 41 42 39 38 39 41 43 44 44 44 45 49 57 76 104 141	900 883 868 854 842	-8496 -8944 -9396 -9504 -10400	-6504 -6696 -6864 -7180 -7596	7832 7592 7496 7296 7312
2090	90	624	0	15	321	2	96	0	0	0	201 297 392 411 317 113 -144 -392 -601 -747 -827 -828 -726 -543 -335 -131 39 150 209 240 258 272 285 294 300 304 306 306 306 309 314 318 320 322 323 326 330 333 335 336 338 341 348 356 364 372 381 394 410 428	832 821 808 793 775	-11524 -11912 -11236 -9892 -9664	-7960 -7120 -6676 -5764 -5668	7280 7576 7844 8552 8196
2091	90	636	0	15	321	2	96	0	0	1	461 473 484 495 502 505 505 502 494 484 472 453 428 402 377 355 330 300 261 219 182 154 136 125 112 97 80 66 55 47 39 31 25 26 32 37 43 49 55 59 62 64 64 62 58 53 49 49 56 68	753 731 709 691 676	-9448 -9172 -9060 -9060 -9160	-5684 -5828 -5756 -5640 -5664	7988 8024 7708 7664 7680
2092	90	636	0	15	321	2	96	0	0	0	79 84 82 77 71 64 61 63 65 68 69 65 62 61 60 60 60 64 74 86 93 94 92 95 102 109 109 95 75 60 55 56 61 68 70 66 58 48 39 36 37 36 33 32 32 34 37 39 39 37	667 662 661 663 667	-9312 -9740 -9944 -10116 -10800	-5788 -6020 -6328 -6568 -6500	7384 7428 7176 7188 6960
2093	90	636	0	15	321	2	96	0	0	0	35 34 34 37 46 68 103 150 220 315 377 348 220 23 -181 -353 -494 -611 -690 -693 -601 -441 -260 -93 32 106 144 162 175 189 200 206 208 209 211 212 215 219 223 226 231 237 242 249 256 262 266 270 276 283	673 678 680 676 667	-11320 -10180 -9716 -9304 -9640	-7408 -6872 -7036 -6944 -6492	6796 7908 8472 8232 7924
2094	90	632	0	15	321	2	96	0	0	1	293 304 316 328 340 353 362 371 383 398 413 426 432 432 430 426 422 415 403 388 369 349 326 299 268 238 206 174 144 115 87 62 39 17 0 -15 -28 -38 -43 -45 -46 -47 -46 -45 -43 -41 -38 -36 -34 -30	652 633 614 595 580	-9036 -8764 -8616 -8804 -9224	-5736 -5888 -6160 -6284 -6568	7884 7808 7776 7748 7472
2095	90	632	0	15	321	2	96	0	0	0	-26 -24 -21 -17 -14 -12 -13 -15 -16 -15 -13 -11 -11 -13 -14 -13 -15 -17 -19 -20 -20 -20 -20 -21 -23 -25 -25 -25 -26 -26 -25 -22 -16 -6 8 21 31 36 40 49 62 74 79 76 69 64 58 49 38 25	569 561 558 558 558	-9284 -9820 -10312 -11280 -11388	-6596 -6900 -7208 -7860 -6452	7608 7136 7252 7084 7844
2096	92	632	0	15	321	2	96	0	0	0	17 14 9 2 -3 -7 -11 -11 -12 -14 -15 -16 -17 -18 -19 -21 -24 -28 -30 -26 -13 13 46 93 172 247 241 124 -92 -357 -611 -824 -978 -1064 -1063 -948 -748 -520 -303 -126 -11 50 80 97 110 120 127 132 137 142	559 558 555 550 543	-10716 -10284 -8500 -8296 -8564	-5924 -6116 -5724 -5528 -5544	8228 8216 8204 8176 7828
2097	92	660	0	15	321	2	96	0	0	1	143 143 146 148 150 152 155 158 161 166 171 174 178 182 188 195 204 214 225 238 254 271 290 306 320 335 350 363 373 377 378 378 375 367 353 334 312 288 262 232 200 167 129 91 55 20 -15 -49 -78 -102	535 527 520 514 509	-8836 -9556 -9468 -9876 -10220	-5860 -6244 -6152 -6768 -7188	7812 7284 7208 7080 7012
2098	92	660	0	15	320	2	96	0	0	0	-121 -138 -152 -164 -173 -178 -181 -182 -183 -181 -177 -172 -166 -160 -155 -153 -153 -154 -153 -155 -159 -163 -169 -178 -188 -196 -203 -211 -216 -222 -231 -239 -247 -255 -262 -269 -274 -279 -284 -290 -294 -299 -303 -305 -309 -315 -322 -328 -333 -338	505 502 498 493 486	-10860 -10544 -10140 -9376 -9240	-6808 -7956 -7620 -7156 -7232	6492 6960 7916 8316 8200
2099	92	660	0	15	320	2	96	0	0	0	-344 -351 -351 -344 -337 -334 -338 -343 -342 -338 -340 -350 -366 -384 -403 -421 -443 -468 -493 -517 -541 -562 -581 -599 -619 -639 -658 -676 -696 -714 -730 -744 -757 -771 -787 -803 -820 -835 -842 -838 -821 -798 -760 -690 -622 -626 -737 -946 -1204 -1452	474 458 436 411 386	-9012 -8628 -8328 -8164 -8800	-5872 -5684 -5912 -6040 -6368	7776 7764 7724 7576 7408
2100	92	660	0	15	320	2	96	0	0	0	-1668 -1834 -1935 -1954 -1870 -1703 -1505 -1310 -1148 -1043 -994 -977 -970 -962 -958 -958 -961 -961 -960 -964 -972 -977 -981 -984 -988 -992 -996 -996 -998 -1001 -1003 -1003 -1002 -1001 -999 -997 -992 -985 -974 -962 -951 -938 -923 -906 -887 -867 -849 -835 -824 -815	364 347 335 329 328	-9096 -9804 -10068 -10752 -11600	-6672 -6728 -6880 -7600 -6828	7312 7272 6536 6512 6944
2101	92	676	0	15	320	2	96	0	0	1	-812 -811 -815 -822 -831 -843 -858 -877 -900 -925 -952 -976 -1001 -1029 -1055 -1080 -1103 -1121 -1137 -1154 -1167 -1176 -1184 -1189 -1190 -1192 -1193 -1191 -1190 -1190 -1188 -1185 -1181 -1176 -1171 -1169 -1165 -1161 -1161 -1162 -1161 -1158 -1155 -1152 -1150 -1150 -1149 -1147 -1146 -1146	331 335 338 339 338	-10952 -10552 -10304 -8600 -8292	-6148 -5748 -5868 -5980 -5864	8104 8124 7732 7848 7876
2102	92	676	0	15	320	2	96	0	0	0	-1145 -1143 -1141 -1141 -1140 -1135 -1128 -1124 -1124 -1124 -1121 -1116 -1108 -1104 -1105 -1103 -1093 -1073 -1053 -1041 -1037 -1032 -1021 -1008 -998 -995 -998 -1000 -998 -1000 -1006 -1011 -1013 -1013 -1010 -1005 -1001 -998 -996 -992 -987 -978 -969 -961 -954 -948 -942 -933 -923 -915	332 325 318 314 315	-8168 -8272 -9164 -9576 -10184	-5548 -5276 -5816 -5944 -6516	7904 7772 7436 7300 6964
2103	92	676	0	15	320	2	96	0	0	0	-908 -900 -887 -866 -833 -791 -736 -662 -573 -512 -530 -637 -799 -955 -1072 -1157 -1223 -1272 -1279 -1224 -1118 -991 -863 -755 -680 -639 -618 -603 -586 -568 -557 -551 -540 -524 -510 -498 -488 -481 -475 -468 -464 -459 -453 -447 -441 -436 -434 -430 -424 -417	320 329 340 351 359	-10108 -12444 -11268 -10356 -9776	-6992 -8152 -7676 -7604 -7596	6852 6720 7252 8284 8576
2104	92	660	0	15	320	2	96	0	0	1	-411 -407 -402 -393 -381 -368 -357 -347 -336 -325 -315 -308 -302 -297 -295 -297 -302 -305 -309 -315 -324 -335 -349 -367 -390 -413 -434 -453 -471 -488 -501 -514 -527 -537 -548 -556 -562 -567 -571 -574 -575 -575 -572 -568 -562 -556 -551 -550 -550 -551	360 356 344 327 308	-9356 -8648 -8312 -8024 -8056	-7388 -5732 -5420 -5548 -5796	8268 7904 8004 7940 7868
2105	92	660	0	15	320	2	96	0	0	0	-552 -551 -549 -545 -541 -539 -538 -538 -540 -539 -535 -531 -528 -527 -527 -527 -525 -522 -519 -517 -514 -509 -504 -501 -498 -493 -488 -482 -470 -454 -438 -426 -420 -419 -415 -407 -400 -399 -404 -412 -419 -423 -427 -432 -437 -442 -444 -444 -441 -435	291 278 270 267 268	-9056 -9752 -10292 -10600 -11616	-6820 -6956 -7072 -7356 -7108	7412 7532 6944 6920 7280
2106	93	660	0	15	320	2	96	0	0	0	-428 -421 -415 -410 -403 -395 -387 -380 -375 -371 -366 -362 -358 -351 -339 -319 -283 -236 -172 -81 3 18 -68 -246 -463 -651 -797 -909 -988 -1020 -976 -854 -690 -524 -386 -298 -254 -234 -223 -212 -202 -197 -198 -198 -195 -193 -194 -194 -191 -186	270 272 272 269 262	-11552 -11532 -10932 -9576 -7812	-6020 -5664 -6100 -6208 -5476	8364 8308 7928 7932 8116
2107	93	648	0	15	320	2	96	0	0	1	-183 -178 -174 -172 -171 -169 -166 -162 -157 -150 -142 -134 -127 -118 -109 -96 -83 -69 -53 -38 -22 -6 8 20 28 33 33 28 19 8 -4 -20 -42 -66 -92 -117 -143 -172 -204 -235 -263 -289 -310 -329 -345 -358 -370 -378 -382 -384	252 241 231 226 227	-7564 -8044 -8468 -10152 -10460	-5032 -4964 -5332 -6496 -6744	7996 7980 7800 7364 6952
2108	93	648	0	15	321	2	96	0	0	0	-385 -383 -378 -368 -357 -347 -339 -331 -323 -314 -303 -292 -283 -274 -266 -257 -249 -238 -226 -217 -207 -194 -182 -172 -162 -153 -144 -136 -130 -124 -117 -109 -98 -87 -76 -63 -49 -34 -14 11 34 50 61 72 90 111 127 137 144 152	235 247 262 275 283	-10612 -11776 -10840 -10368 -10076	-7344 -7364 -8404 -8344 -7752	7184 6568 8800 8600 8160
2109	93	648	0	15	321	2	96	0	0	0	163 171 176 181 187 194 203 213 226 240 253 263 272 283 295 308 322 337 350 362 373 383 393 405 423 455 500 555 636 731 769 700 524 279 33 -176 -336 -430 -445 -356 -168 65 299 505 654 742 790 823 855 886	286 284 277 268 261	-9276 -8524 -7152 -7256 -8080	-6524 -5352 -5280 -5540 -6060	7884 7972 8000 7988 7776
2110	93	632	0	15	321	3	96	0	0	1	911 931 953 975 997 1018 1040 1062 1085 1108 1133 1160 1187 1215 1245 1277 1310 1341 1372 1405 1440 1477 1514 1551 1592 1638 1683 1728 1775 1820 1863 1905 1947 1986 2021 2052 2076 2094 2110 2124 2131 2131 2125 2114 2100 2083 2061 2036 2009 1983	260 266 277 291 307	-9672 -10108 -10784 -12132 -11740	-6780 -7488 -7828 -7860 -6572	7424 6620 6788 6812 8392
2111	93	632	0	15	321	3	96	0	0	0	1957 1931 1908 1884 1861 1843 1831 1815 1797 1780 1764 1753 1746 1739 1728 1716 1704 1690 1677 1663 1647 1632 1616 1598 1578 1559 1540 1520 1499 1479 1457 1436 1418 1402 1385 1365 1344 1325 1306 1288 1271 1254 1235 1215 1198 1182 1171 1166 1166 1165	319 325 325 320 309	-11480 -10300 -8552 -7608 -7300	-6624 -6332 -6088 -5772 -5172	7804 8056 8060 8028 8080
2112	93	632	0	15	321	3	96	0	0	0	1158 1147 1135 1128 1126 1121 1108 1090 1070 1052 1033 1010 982 956 933 913 897 881 863 847 831 816 803 791 778 767 757 747 737 726 715 705 698 699 711 735 768 816 894 974 993 914 746 539 348 184 45 -66 -130 -107	296 284 277 276 280	-8068 -8856 -9804 -10840 -10904	-5176 -5688 -6332 -6776 -7536	7900 7736 7644 6892 7188
2113	93	644	0	15	321	3	96	0	0	0	6 165 333 481 581 635 659 670 679 688 695 698 700 699 696 692 691 691 690 691 691 689 688 687 684 682 681 682 684 686 691 696 702 712 722 729 737 749 764 781 795 806 811 813 813 808 797 780 759 736	287 291 289 282 270	-10636 -9144 -9592 -10988 -10748	-7560 -7204 -7920 -8192 -8212	7764 8940 8920 7852 7752
2114	93	644	0	15	321	3	96	0	0	1	710 681 649 616 583 548 514 478 443 411 381 358 338 318 295 273 259 254 255 257 254 251 251 250 250 252 252 252 256 260 262 263 263 260 259 261 266 270 269 274 289 292 270 231 198 180 181 192 198 199	256 242 231 221 213	-10088 -9724 -9568 -7608 -7204	-8164 -7456 -6460 -5864 -4880	7692 7900 8088 8432 8556
2115	93	644	0	15	321	3	96	0	0	0	220 232 241 250 260 264 262 258 263 271 273 266 255 243 230 218 203 185 168 153 139 130 125 120 116 111 104 99 99 105 110 111 110 108 105 102 105 108 113 125 149 183 233 306 387 429 387 253 72 -93	205 197 191 186 183	-6980 -6516 -13560 -13396 -13020	-3980 -3392 -6548 -7420 -7452	8856 9180 7856 7352 7008
2116	93	644	0	15	321	3	96	0	0	0	-217 -310 -385 -443 -460 -414 -319 -205 -92 -3 51 77 86 92 100 108 109 102 102 109 115 115 114 111 108 110 117 124 125 126 126 129 137 147 156 166 177 188 203 218 231 241 248 253 259 271 289 303 308 310	182 182 181 176 168	-12556 -9568 -8376 -7536 -6952	-7412 -6352 -5560 -5212 -5128	6532 7756 8408 8472 8344
2117	93	624	0	15	321	3	96	0	0	1	313 315 310 297 279 258 240 224 203 176 145 111 78 49 23 -1 -25 -47 -71 -95 -112 -125 -138 -153 -171 -188 -201 -207 -202 -186 -162 -136 -115 -101 -93 -84 -71 -59 -57 -62 -66 -64 -53 -35 -23 -20 -24 -29 -35 -45	157 143 134 131 130	-6260 -6652 -15108 -14508 -12832	-5064 -5696 -10772 -8984 -10308	8500 8740 7272 6524 6444
2118	93	624	0	15	321	3	96	0	0	0	-59 -75 -87 -97 -114 -140 -167 -184 -190 -190 -192 -203 -224 -248 -268 -286 -306 -325 -346 -371 -394 -415 -441 -472 -505 -532 -549 -562 -578 -597 -617 -633 -647 -659 -675 -693 -708 -718 -728 -740 -750 -759 -771 -781 -780 -763 -732 -688 -622 -549	132 133 128 116 99	-10504 -8748 -7980 -7076 -5792	-6776 -6448 -5592 -4680 -3372	7284 7704 7904 8592 8984
2119	93	624	0	15	321	3	96	0	0	0	-529 -612 -802 -1051 -1293 -1504 -1677 -1803 -1874 -1862 -1755 -1591 -1412 -1239 -1098 -1010 -963 -929 -894 -855 -816 -781 -749 -719 -696 -683 -678 -677 -674 -676 -684 -687 -686 -693 -701 -712 -726 -738 -739 -734 -729 -723 -716 -705 -689 -681 -680 -678 -671 -655	80 62 50 42 42	-6380 -13968 -14784 -14536 -11468	-3736 -6900 -11404 -7664 -7380	8760 7104 6696 6804 6712
2120	93	620	0	15	321	3	96	0	0	1	-632 -610 -598 -596 -606 -626 -644 -655 -663 -674 -689 -711 -738 -765 -792 -825 -865 -907 -948 -985 -1017 -1048 -1080 -1108 -1129 -1143 -1159 -1176 -1191 -1197 -1196 -1190 -1188 -1189 -1188 -1190 -1197 -1201 -1201 -1202 -1202 -1201 -1205 -1208 -1204 -1192 -1186 -1191 -1207 -1226	47 50 49 44 34	-8252 -7184 -5844 -5460 -6188	-5820 -5232 -4756 -4740 -5344	8172 8380 8772 8824 8504
2121	93	620	0	15	321	3	96	0	0	0	-1233 -1222 -1209 -1208 -1223 -1247 -1268 -1279 -1284 -1291 -1295 -1290 -1271 -1237 -1192 -1145 -1101 -1057 -1015 -977 -949 -936 -938 -946 -953 -959 -963 -967 -971 -974 -978 -987 -989 -983 -973 -953 -909 -888 -919 -940 -943 -945 -932 -922 -933 -941 -926 -914 -921 -929	23 18 19 23 30	-18172 -12884 -12236 -11048 -9732	-13536 -10372 -9252 -7216 -6460	6960 6396 6564 6780 7640
2122	93	620	0	15	321	3	96	0	0	0	-914 -873 -821 -753 -661 -591 -611 -745 -961 -1186 -1375 -1532 -1654 -1735 -1756 -1686 -1540 -1363 -1184 -1023 -908 -845 -816 -798 -782 -767 -754 -744 -739 -737 -732 -728 -723 -716 -711 -708 -706 -702 -698 -694 -690 -685 -680 -676 -669 -659 -649 -639 -628 -616	37 36 30 23 15	-7304 -6592 -6168 -5700 -7376	-4820 -4264 -3716 -3504 -4512	8584 8796 8852 8748 8116
2123	93	620	0	15	321	3	96	0	0	1	-604 -592 -580 -568 -557 -544 -532 -520 -508 -491 -471 -452 -440 -434 -434 -438 -442 -449 -458 -469 -481 -499 -524 -542 -548 -580 -625 -644 -654 -656 -655 -664 -680 -685 -673 -660 -654 -653 -648 -639 -632 -629 -627 -626 -622 -615 -599 -583 -573 -567	11 14 22 34 50	-14640 -14508 -13196 -10764 -7540	-7464 -7636 -7852 -7012 -5456	7412 6732 6528 7580 8156
2124	93	620	0	15	321	3	96	0	0	0	-556 -544 -537 -534 -531 -519 -504 -492 -485 -478 -471 -464 -448 -427 -412 -408 -407 -400 -386 -371 -359 -355 -359 -364 -370 -379 -389 -393 -392 -396 -405 -412 -410 -399 -389 -375 -359 -350 -345 -351 -376 -403 -419 -425 -424 -420 -418 -419 -416 -401	62 68 71 67 63	-6720 -6276 -5516 -8688 -11152	-5032 -4792 -4648 -7628 -11540	8572 8668 8932 7652 7936
2125	93	620	0	15	321	3	96	0	0	0	-380 -348 -290 -200 -104 -61 -108 -244 -411 -551 -658 -745 -819 -872 -866 -776 -632 -472 -328 -222 -157 -124 -99 -71 -42 -17 -3 8 21 37 55 77 82 74 80 95 110 122 129 136 144 154 165 170 176 189 206 218 223 230	66 74 87 101 113	-13248 -12760 -11548 -7964 -6900	-11824 -10272 -6680 -5640 -4696	6972 6316 6928 8108 8408
2126	94	600	0	15	321	3	96	0	0	1	239 252 271 295 314 322 324 323 322 324 330 333 332 325 308 287 271 258 240 216 193 169 148 130 110 88 69 52 38 27 19 12 6 1 -4 -5 -2 2 7 16 34 59 86 111 133 153 173 188 201 215	114 108 97 86 79	-5908 -5716 -8908 -15604 -14984	-3992 -3380 -5148 -3688 -7416	8924 9060 7752 6976 6620
2127	94	600	0	15	321	3	96	0	0	0	230 246 261 271 276 283 291 296 301 304 304 307 319 338 359 383 408 423 424 424 431 442 456 461 455 454 466 477 473 456 440 435 438 443 446 446 446 443 439 436 434 430 424 420 420 428 438 442 437 431	77 82 92 103 108	-14624 -10120 -8276 -6420 -5800	-7104 -6796 -6204 -5288 -4320	6260 7644 8208 8688 8536
2128	94	600	0	15	321	3	96	0	0	0	438 466 514 574 638 707 745 707 579 389 198 33 -118 -252 -345 -372 -307 -163 7 167 306 402 451 468 469 466 462 457 456 459 459 458 464 485 520 559 600 636 663 682 695 701 704 705 705 711 728 740 741 745	109 104 95 92 93	-5460 -6300 -17964 -14624 -13980	-4724 -5312 -13680 -8192 -10416	8728 8156 6672 6824 6508
2129	94	604	0	15	321	3	96	0	0	1	756 772 793 813 832 851 872 892 909 924 936 944 941 936 926 902 873 849 832 818 800 771 727 680 638 597 552 509 472 438 411 392 372 350 329 309 295 286 278 269 260 256 253 250 248 246 243 241 240 238	99 108 116 115 108	-10900 -9044 -7532 -6716 -5776	-7096 -5784 -5124 -4412 -3080	7444 8160 8152 8532 9104
2130	94	604	0	15	321	3	96	0	0	0	233 226 218 208 197 188 183 179 173 163 152 139 127 119 117 121 126 127 118 108 107 113 124 136 148 165 184 206 223 231 232 233 238 250 265 278 282 275 270 272 274 270 266 264 270 282 290 292 290 284	96 82 73 70 74	-6208 -12436 -14404 -15552 -11852	-4132 -6864 -10748 -7840 -7656	8332 7276 7708 7152 6848
2131	94	604	0	15	321	3	96	0	0	0	283 295 326 371 429 511 607 663 630 489 278 77 -77 -199 -309 -403 -449 -414 -306 -164 -19 106 192 234 247 248 246 246 244 235 221 210 202 196 195 196 191 185 183 184 185 184 179 174 171 172 172 170 166 163	84 96 101 98 89	-9624 -7700 -6468 -5280 -5260	-6844 -6020 -4844 -4384 -4668	8032 8340 8620 9048 8768
2132	94	604	0	15	321	3	96	0	0	1	165 174 185 182 170 167 178 203 218 214 192 165 150 141 126 111 101 95 88 85 95 120 150 173 184 183 175 163 154 155 154 146 130 110 104 119 142 167 186 201 215 229 244 257 267 278 289 290 282 272	74 61 59 64 76	-5876 -12808 -14580 -13800 -11328	-4936 -10756 -11580 -9460 -6284	8256 7416 6188 5524 7472
2133	94	604	0	15	321	3	96	0	0	0	262 257 259 257 250 237 224 216 204 186 171 165 168 168 161 150 138 127 123 119 111 100 91 81 65 44 24 9 2 2 2 -2 -9 -17 -20 -18 -16 -13 -12 -10 -6 -3 -1 -2 -2 1 8 13 20 37	90 99 96 87 72	-8656 -7228 -5752 -5716 -6308	-5520 -4964 -3572 -3388 -4148	8104 7988 9032 9104 8300
2134	94	604	0	15	321	3	96	0	0	0	73 124 193 285 356 351 245 67 -111 -240 -314 -355 -378 -368 -295 -158 8 176 325 436 505 544 572 591 606 624 641 652 664 672 683 703 717 725 732 735 746 764 776 782 791 801 814 826 837 845 855 867 878 884	58 53 55 67 84	-11464 -16128 -15116 -11440 -9032	-6000 -8528 -8364 -7448 -6756	7112 5408 5584 6896 8240
2135	94	592	0	15	321	3	96	0	0	1	889 894 902 920 937 947 952 955 956 951 938 919 901 888 875 858 839 820 805 786 751 704 663 639 628 622 611 595 575 552 522 500 496 496 492 473 445 436 475 549 606 611 562 484 418 386 377 373 365 353	97 101 97 85 70	-6036 -5608 -5312 -5432 -6448	-4652 -4544 -4436 -4676 -5900	8560 8796 9080 8340 7992
2136	96	592	0	15	321	3	96	0	0	0	344 342 344 355 379 407 432 455 474 493 517 537 551 557 557 561 571 585 600 612 616 617 615 614 619 631 641 632 591 532 499 505 524 531 517 491 476 477 474 453 431 416 406 396 382 368 358 353 361 386	64 63 69 79 86	-13936 -13808 -12404 -9968 -7044	-11920 -11536 -8184 -6232 -4424	6708 5840 6384 7828 8444
2137	96	592	0	15	321	3	96	0	0	0	419 462 532 599 596 488 284 48 -160 -329 -459 -551 -594 -556 -432 -262 -78 87 204 267 297 314 332 342 340 334 331 327 321 312 302 296 291 285 278 270 257 244 237 237 247 268 296 335 374 399 416 431 451 475	85 79 67 56 50	-5844 -5888 -5912 -17916 -16184	-3944 -3256 -3488 -8900 -8660	8576 8992 9020 6336 6440
2138	96	592	0	15	321	3	96	0	0	1	505 537 564 578 586 589 586 576 559 539 525 516 503 480 451 423 406 394 374 348 329 316 297 267 234 204 180 167 156 143 130 121 114 104 95 91 92 95 101 108 109 107 103 99 95 93 92 91 91 94	51 58 68 75 72	-15780 -13736 -8132 -6636 -5604	-7940 -8216 -6264 -5016 -4520	6124 5864 8300 8412 8528
2139	96	592	0	15	321	3	96	0	0	0	95 93 93 91 87 86 91 99 109 116 117 113 106 104 109 117 116 100 78 64 71 73 47 10 -24 -42 -41 -45 -63 -84 -93 -94 -96 -100 -96 -71 -27 27 78 121 151 172 198 232 269 302 321 349 421 539	63 47 29 19 18	-5124 -5480 -7840 -11824 -13908	-4676 -4412 -6704 -11116 -13132	8992 8976 7988 6692 6844
2140	96	592	0	15	321	3	96	0	0	0	689 614 449 272 128 13 -76 -135 -160 -144 -78 22 139 247 317 345 346 343 349 357 358 358 360 359 360 364 368 368 363 353 346 347 353 361 370 379 388 397 407 418 428 438 452 475 497 515 532 546 562 582	22 32 41 43 39	-12996 -9208 -7432 -6544 -6008	-11188 -6124 -5032 -4336 -3664	6048 7988 7960 8708 8848
2141	96	592	0	15	321	3	96	0	0	1	596 604 614 625 630 627 617 601 584 574 570 564 555 540 518 491 460 428 392 354 325 302 282 270 264 259 257 257 259 262 271 283 297 309 316 321 326 334 341 344 342 341 343 344 342 330 313 301 296 293	32 23 22 26 36	-6196 -7616 -17324 -16288 -14964	-4140 -4732 -9704 -7440 -7928	8588 7736 7736 6224 6052
2142	96	592	0	15	321	3	96	0	0	0	292 294 299 305 315 330 345 349 343 339 346 357 364 360 349 338 338 345 348 348 344 333 321 313 313 321 328 328 325 322 324 331 341 350 353 352 350 346 351 369 398 433 468 508 565 627 653 609 484 298	49 61 64 61 53	-9948 -7628 -6448 -5872 -5164	-7040 -6016 -4972 -4740 -4616	7696 8252 8460 8504 8840
2143	96	592	0	15	321	3	96	0	0	0	99 -81 -232 -353 -428 -429 -347 -197 -27 116 211 263 283 275 242 217 223 252 294 330 346 353 364 370 369 376 392 407 409 387 357 342 348 375 412 435 442 445 448 457 475 491 500 504 504 502 506 518 527 533	43 37 38 42 46	-5504 -14328 -12580 -10372 -7928	-5036 -12284 -9032 -6584 -5844	8224 8360 6332 7688 7864
2144	96	584	0	15	321	3	96	0	0	1	534 526 519 512 503 491 474 451 424 395 364 330 298 263 230 208 192 180 169 146 117 94 79 68 58 54 56 60 67 73 78 86 98 112 121 116 97 66 33 22 45 83 107 112 103 94 87 78 64 53	48 43 34 22 10	-7380 -6136 -5372 -6532 -11012	-4960 -3896 -3176 -4524 -6016	8172 8724 8928 8376 7732
2145	96	584	0	15	321	3	96	0	0	0	54 64 70 66 57 58 73 91 99 96 86 75 68 61 49 36 30 34 38 34 26 20 10 -3 -13 -19 -22 -23 -29 -44 -59 -61 -49 -28 -16 -18 -19 -4 33 93 180 293 354 288 141 -32 -189 -302 -408 -524	3 3 7 14 22	-16260 -14600 -11392 -8964 -6836	-10048 -8316 -7096 -6468 -5396	7164 5548 6976 8164 8112
2146	99	584	0	15	321	3	96	0	0	0	-628 -672 -629 -520 -377 -213 -62 41 94 117 134 154 164 167 172 178 184 196 208 204 188 177 177 186 200 214 221 226 233 242 250 253 251 241 234 249 279 292 290 282 272 278 284 276 267 258 241 219 197 185	23 19 10 -2 -11	-5140 -5304 -6060 -6636 -19716	-4528 -4700 -4632 -5424 -14860	8964 9368 8436 8016 7156
2147	99	584	0	15	321	3	96	0	0	1	191 204 197 169 153 154 156 151 134 111 82 50 29 16 5 4 3 -4 -2 10 26 30 22 23 25 25 33 43 45 45 42 36 40 50 55 59 67 69 64 57 54 53 60 76 91 103 112 115 113 113	-12 -7 2 12 18	-14076 -12908 -10008 -8076 -5900	-11168 -8128 -6572 -5836 -3848	6232 6260 8080 7876 8956
2148	99	584	0	15	321	3	96	0	0	0	125 140 142 131 119 110 102 95 89 87 89 91 85 77 72 70 68 62 54 52 52 47 46 50 55 58 60 57 51 52 69 100 145 216 303 359 339 229 48 -141 -290 -401 -484 -539 -559 -526 -437 -311 -170 -40	18 13 6 2 2	-5884 -5860 -7032 -15612 -15632	-3036 -3680 -4528 -10080 -8272	9260 8728 7828 7196 5760
2149	99	572	0	15	321	3	96	0	0	1	56 112 130 121 109 101 96 102 112 116 111 104 109 119 142 152 111 72 68 83 118 147 153 151 159 175 182 185 198 221 240 259 289 328 357 364 357 353 361 373 369 352 341 343 346 336 315 291 266 249	8 17 28 34 33	-13428 -9980 -7776 -5288 -5208	-8072 -6700 -6144 -4620 -4688	6124 5716 8452 8716 9028
2150	99	572	0	15	321	3	96	0	0	0	231 206 181 165 159 153 136 111 86 69 61 58 55 31 -4 -27 -32 -24 -12 -6 -9 -18 -23 -23 -27 -41 -64 -87 -102 -108 -104 -84 -58 -44 -43 -46 -38 -19 7 31 32 14 -10 -33 -43 -25 13 45 59 59	28 18 10 9 12	-5720 -5992 -19384 -14404 -13672	-4460 -4516 -7712 -12636 -9480	9180 7884 6352 6476 5448
2151	99	572	0	15	321	3	96	0	0	0	59 63 65 59 49 48 50 47 41 38 38 38 33 20 10 16 35 52 59 53 38 26 23 28 46 82 134 202 289 371 389 311 137 -83 -278 -432 -552 -642 -696 -682 -583 -432 -268 -116 1 73 109 124 132 140	19 27 32 33 34	-11112 -7584 -6976 -4916 -5200	-6900 -5260 -3188 -2032 -3716	7672 7900 8928 9028 8748
2152	99	580	0	15	321	3	96	0	0	1	147 152 155 156 153 147 142 146 153 159 163 165 164 159 156 154 150 145 139 133 133 137 141 145 154 165 175 179 183 192 208 224 234 238 236 233 227 217 227 258 243 168 89 29 0 6 14 -3 -32 -43	32 30 31 32 32	-6568 -19364 -18160 -14392 -11244	-4816 -8432 -6520 -9420 -7756	8056 7060 5884 6184 6680
2153	99	580	0	15	321	3	96	0	0	0	-41 -42 -47 -57 -72 -93 -107 -105 -98 -94 -88 -79 -66 -55 -43 -24 -5 3 -5 -23 -33 -29 -19 -11 -11 -15 -13 -1 18 33 49 64 76 91 109 128 150 163 154 128 102 93 104 102 80 55 32 5 -23 -45	30 24 11 -6 -25	-7232 -5712 -5340 -5364 -6896	-5260 -4320 -4460 -4540 -5940	8472 8668 8832 9020 7652
2154	99	580	0	15	321	3	96	0	0	0	-60 -64 -61 -70 -95 -123 -145 -169 -202 -234 -246 -242 -232 -221 -206 -189 -164 -124 -71 -2 94 200 259 228 98 -81 -240 -357 -438 -491 -523 -518 -461 -365 -252 -140 -46 19 51 55 47 41 45 55 65 71 71 66 65 65	-39 -42 -36 -25 -11	-13644 -13604 -13672 -8992 -7644	-14828 -13420 -10856 -5868 -4908	8520 6860 4788 8096 7664
2155	99	572	0	15	321	3	96	0	0	1	59 49 41 39 40 44 47 45 35 25 25 34 45 52 50 45 45 52 59 67 72 72 72 78 84 86 83 73 59 47 31 11 -10 -30 -49 -69 -88 -110 -135 -163 -191 -221 -253 -284 -317 -345 -363 -372 -372 -361	-1 0 -5 -15 -24	-6564 -5720 -5680 -7748 -18108	-4348 -3360 -2996 -5120 -8824	8624 9024 9380 7796 7432
2156	102	572	0	15	321	3	96	0	0	0	-350 -347 -342 -338 -337 -329 -312 -294 -277 -262 -255 -252 -245 -238 -235 -233 -200 -197 -267 -319 -318 -275 -227 -224 -242 -245 -211 -165 -153 -177 -197 -196 -195 -203 -210 -215 -227 -250 -274 -286 -283 -275 -269 -273 -288 -305 -316 -314 -312 -318	-27 -23 -14 -3 2	-16596 -15240 -9612 -7236 -6088	-8312 -7804 -6708 -6456 -4456	6232 5864 8076 8584 8808
2157	102	572	0	15	321	3	96	0	0	0	-328 -335 -333 -333 -345 -359 -363 -355 -335 -300 -251 -190 -122 -88 -133 -261 -437 -605 -740 -853 -958 -1061 -1136 -1139 -1060 -937 -796 -656 -562 -528 -515 -499 -495 -511 -538 -579 -615 -637 -652 -662 -659 -637 -599 -553 -516 -492 -468 -441 -419 -399	-3 -16 -35 -55 -65	-5072 -5772 -6108 -12556 -19756	-4400 -4728 -4872 -10596 -7540	8708 8580 7988 7900 5648
2158	102	560	0	15	321	3	96	0	0	1	-380 -370 -367 -364 -371 -387 -393 -385 -367 -353 -349 -341 -317 -259 -264 -354 -391 -389 -397 -394 -404 -454 -494 -510 -540 -591 -643 -681 -724 -782 -833 -863 -890 -942 -1008 -1063 -1105 -1138 -1161 -1177 -1189 -1196 -1200 -1200 -1200 -1204 -1210 -1208 -1199 -1193	-68 -64 -56 -49 -49	-14964 -11280 -8436 -7060 -6152	-11384 -7060 -5420 -4812 -3708	5952 5520 8184 8040 9008
2159	102	560	0	15	321	3	96	0	0	0	-1198 -1206 -1209 -1204 -1196 -1192 -1196 -1208 -1219 -1226 -1230 -1225 -1217 -1218 -1220 -1221 -1228 -1236 -1236 -1219 -1195 -1181 -1187 -1211 -1238 -1256 -1268 -1286 -1310 -1332 -1342 -1344 -1342 -1331 -1315 -1299 -1282 -1267 -1252 -1233 -1212 -1191 -1164 -1138 -1121 -1115 -1118 -1124 -1118 -1083	-54 -63 -73 -76 -73	-5816 -6284 -10520 -16628 -15344	-3496 -4612 -5668 -8624 -8596	8876 8072 8024 7412 5604
2160	102	560	0	15	321	3	96	0	0	0	-1030 -968 -886 -786 -703 -681 -743 -890 -1067 -1221 -1349 -1463 -1565 -1633 -1626 -1535 -1387 -1225 -1091 -1004 -955 -927 -908 -896 -889 -882 -869 -858 -857 -863 -869 -870 -866 -864 -867 -869 -861 -848 -843 -844 -839 -825 -810 -801 -798 -798 -794 -783 -768 -756	-63 -48 -37 -35 -40	-11032 -8600 -6932 -5736 -5312	-7156 -6372 -5428 -4344 -4832	7288 8240 8472 8612 8904
2161	102	568	0	15	321	3	96	0	0	1	-744 -722 -702 -687 -674 -669 -673 -672 -644 -597 -568 -573 -605 -657 -708 -739 -762 -790 -818 -849 -889 -934 -969 -992 -1002 -1003 -1001 -1001 -1005 -1008 -1008 -1007 -1002 -991 -975 -956 -930 -906 -889 -877 -862 -846 -825 -791 -753 -726 -704 -680 -662 -651	-52 -68 -79 -82 -75	-5632 -7340 -14024 -13408 -12184	-4700 -6568 -14548 -11248 -6708	8204 8152 7868 6088 6944
2162	102	568	0	15	321	3	96	0	0	0	-639 -626 -610 -586 -556 -538 -535 -534 -525 -510 -496 -501 -522 -544 -552 -549 -550 -563 -581 -592 -594 -592 -589 -586 -584 -582 -579 -574 -567 -558 -556 -563 -571 -572 -569 -566 -560 -545 -516 -472 -415 -343 -254 -179 -173 -265 -435 -617 -769 -894	-65 -54 -45 -41 -44	-9232 -6908 -5944 -5744 -5748	-5528 -5348 -3404 -2928 -3700	8268 8040 9104 9252 8452
2163	102	568	0	15	321	3	96	0	0	0	-1001 -1098 -1164 -1158 -1070 -939 -792 -656 -555 -498 -473 -460 -450 -440 -429 -416 -405 -400 -394 -384 -373 -362 -351 -345 -339 -326 -311 -302 -297 -295 -299 -303 -304 -300 -289 -273 -257 -240 -223 -205 -192 -178 -157 -130 -107 -82 -60 -49 -44 -45	-44 -38 -27 -11 7	-8440 -16584 -15384 -12032 -9368	-5312 -8568 -8144 -7392 -6900	7772 7384 6076 6844 8308
2164	102	556	0	15	321	3	96	0	0	1	-53 -61 -67 -70 -77 -87 -95 -101 -111 -128 -150 -169 -183 -188 -185 -186 -196 -209 -221 -233 -237 -235 -231 -227 -225 -225 -231 -238 -240 -231 -216 -202 -193 -191 -190 -185 -191 -199 -195 -187 -173 -154 -152 -168 -183 -191 -192 -193 -205 -232	21 26 26 18 11	-6780 -5348 -5492 -5528 -6260	-5788 -4084 -4728 -4680 -5340	8232 8688 9204 8676 8132
2165	102	556	0	15	321	3	96	0	0	0	-285 -298 -299 -296 -295 -295 -301 -303 -293 -277 -271 -283 -311 -329 -319 -296 -272 -258 -247 -231 -211 -190 -174 -164 -148 -111 -53 -8 28 95 168 196 145 2 -189 -351 -463 -544 -609 -655 -646 -568 -451 -323 -201 -106 -50 -21 -3 7	11 16 26 38 47	-14080 -14364 -13160 -9736 -6848	-11568 -12084 -8572 -6056 -4384	7968 5876 6380 5968 8540
2166	105	552	0	15	321	3	96	0	0	1	11 14 18 21 23 26 31 34 34 32 35 39 39 36 35 37 43 50 54 56 61 64 64 68 80 97 116 131 139 148 169 187 192 194 193 192 182 158 130 104 83 68 45 5 -37 -69 -97 -128 -156 -175	46 39 27 14 8	-5648 -5632 -5812 -6836 -14204	-3552 -3008 -3652 -4580 -12792	8800 9100 8868 7968 7456
2167	105	552	0	15	321	3	96	0	0	0	-187 -196 -196 -197 -201 -206 -217 -234 -251 -262 -266 -264 -243 -228 -257 -285 -288 -286 -273 -247 -223 -215 -208 -200 -203 -208 -195 -171 -157 -145 -131 -115 -101 -83 -60 -49 -55 -64 -67 -61 -54 -52 -61 -76 -88 -97 -104 -103 -97 -92	6 10 18 24 22	-16096 -14112 -10920 -5584 -5488	-8544 -8156 -6748 -4340 -4788	6052 6184 7676 8404 8996
2168	105	552	0	15	321	3	96	0	0	0	-90 -89 -88 -85 -82 -78 -72 -68 -67 -69 -74 -76 -65 -33 16 76 160 248 276 205 43 -159 -332 -463 -571 -666 -739 -760 -713 -612 -484 -352 -243 -179 -155 -141 -119 -91 -69 -62 -59 -53 -46 -36 -23 -8 1 13 23 25	17 5 -8 -13 -11	-5504 -7668 -12632 -14000 -13640	-4528 -6504 -14268 -13488 -10816	8940 7856 7280 6616 5720
2169	105	548	0	15	321	3	96	0	0	1	44 96 101 69 62 65 95 142 171 177 184 205 230 252 272 293 313 325 333 347 362 370 370 368 366 361 345 320 295 273 255 239 216 190 166 149 136 118 90 56 28 6 -15 -35 -53 -68 -75 -74 -67 -61	-4 3 10 8 1	-11700 -7244 -6696 -5968 -5604	-6864 -5004 -4292 -3440 -3024	7260 7988 8684 8984 9012
2170	105	548	0	15	321	3	96	0	0	0	-64 -74 -85 -92 -91 -86 -80 -78 -78 -80 -79 -78 -77 -73 -64 -54 -48 -52 -64 -72 -65 -51 -51 -78 -120 -156 -178 -195 -208 -222 -240 -258 -272 -285 -291 -290 -291 -300 -316 -329 -339 -351 -369 -391 -403 -401 -397 -389 -376 -367	-10 -20 -23 -20 -11	-9668 -15452 -16884 -15124 -8608	-5444 -7040 -7368 -8460 -6692	7868 7452 5488 5548 8128
2171	105	548	0	15	321	3	96	0	0	0	-352 -318 -263 -176 -69 3 -18 -150 -358 -578 -780 -959 -1103 -1201 -1225 -1147 -987 -792 -599 -441 -340 -292 -267 -245 -227 -212 -204 -197 -184 -170 -167 -167 -165 -161 -150 -139 -137 -137 -142 -152 -139 -90 -6 87 135 102 34 15 83 201	2 14 20 21 18	-7012 -5664 -5276 -5380 -8044	-5496 -4448 -4732 -4596 -6980	8244 8604 8800 9184 8048
2172	105	552	0	15	321	3	96	0	0	1	288 315 314 299 279 269 252 225 217 229 238 247 274 314 348 374 405 433 443 448 461 476 494 510 521 534 551 564 578 606 644 687 732 773 816 888 943 921 911 946 995 1069 1129 1152 1167 1202 1248 1281 1295 1317	17 24 36 53 72	-11956 -13396 -13608 -9288 -7296	-13324 -12732 -10572 -5896 -4748	7352 6372 6212 8000 8404
2173	105	552	0	15	321	3	96	0	0	0	1357 1391 1406 1413 1423 1442 1470 1502 1527 1532 1529 1534 1540 1533 1515 1499 1489 1485 1484 1481 1478 1478 1481 1481 1477 1471 1464 1461 1458 1452 1444 1437 1430 1427 1427 1436 1458 1494 1544 1612 1676 1686 1610 1447 1253 1091 969 878 808 766	87 95 99 100 103	-6496 -5788 -6328 -11544 -15576	-3992 -3080 -4228 -5992 -9800	8580 9088 8424 7400 7520
2174	105	552	0	15	321	3	96	0	0	0	780 866 998 1140 1268 1361 1419 1456 1479 1500 1507 1498 1487 1478 1474 1476 1474 1462 1436 1393 1355 1338 1338 1350 1366 1381 1392 1395 1384 1363 1337 1319 1316 1323 1335 1348 1361 1371 1364 1345 1333 1325 1321 1320 1313 1301 1289 1278 1263 1242	108 116 124 129 127	-15920 -14392 -8336 -6788 -5676	-7720 -8108 -6728 -5428 -4204	5488 5928 8312 8500 8420
2175	105	536	0	15	321	3	96	0	0	1	1223 1210 1194 1165 1123 1082 1049 1022 1000 981 968 959 946 929 913 892 863 838 822 807 802 817 827 811 777 737 698 672 659 644 626 613 603 590 576 567 566 569 575 584 595 601 599 596 592 584 575 561 550 546	118 103 84 70 64	-5528 -5616 -8904 -12640 -13760	-4808 -4656 -7356 -11584 -12572	9028 8600 8172 6588 6900
2176	106	536	0	15	321	3	96	0	0	0	536 519 505 499 502 515 524 519 516 560 658 614 503 470 423 431 491 507 483 484 510 521 520 553 637 731 764 701 554 365 183 30 -90 -181 -250 -264 -197 -77 60 201 316 380 408 421 429 434 432 422 411 404	64 68 74 78 72	-8076 -9460 -7464 -6540 -5972	-6380 -5808 -5076 -3940 -3412	32500 8704 8264 8972 9068
2177	106	544	0	15	321	3	96	0	0	1	398 391 385 384 387 392 390 385 383 383 386 390 390 386 379 375 372 370 372 375 375 377 382 388 398 409 414 413 414 417 424 433 437 429 414 390 363 346 338 329 312 292 263 226 187 143 99 66 51 49	62 48 34 20 11	-5804 -10108 -15500 -16028 -11860	-3988 -5304 -7732 -7316 -7688	8404 8060 7252 6264 6704
2178	106	544	0	15	321	3	96	0	0	0	46 36 23 16 16 20 26 31 33 33 29 25 23 24 26 27 24 22 26 34 46 58 60 53 47 51 60 62 49 31 20 21 28 27 13 -1 -13 -30 -50 -68 -77 -81 -82 -84 -96 -122 -150 -168 -178 -178	6 1 -8 -21 -36	-9264 -7232 -5820 -5420 -5636	-6696 -5840 -4556 -4788 -4856	8300 8348 8652 9172 8180
2179	106	544	0	15	321	3	96	0	0	0	-172 -169 -170 -169 -156 -134 -115 -85 -25 42 61 -14 -182 -393 -577 -708 -794 -845 -865 -833 -730 -582 -424 -278 -172 -116 -90 -72 -54 -41 -40 -54 -73 -90 -111 -142 -176 -199 -222 -246 -262 -275 -277 -286 -340 -407 -454 -485 -492 -490	-53 -63 -65 -61 -53	-7096 -10860 -14056 -12156 -10260	-6068 -11636 -12200 -7688 -6192	8232 7068 7320 6772 7780
2180	106	536	0	15	321	3	96	0	0	1	-502 -518 -523 -522 -529 -536 -541 -546 -553 -561 -559 -549 -538 -532 -535 -549 -564 -577 -587 -592 -605 -630 -652 -667 -678 -693 -713 -734 -752 -766 -777 -790 -804 -817 -826 -830 -832 -835 -835 -834 -835 -833 -830 -828 -825 -820 -813 -807 -798 -783	-46 -46 -53 -64 -76	-7756 -6784 -6088 -6128 -8280	-5696 -4156 -3244 -4028 -5012	8260 8448 9164 8228 8016
2181	106	536	0	15	321	3	96	0	0	0	-761 -736 -707 -669 -620 -570 -522 -480 -438 -388 -328 -263 -219 -204 -197 -182 -158 -131 -110 -105 -113 -112 -86 -53 -32 -12 13 41 77 114 142 169 200 231 261 290 314 340 370 406 456 525 611 721 829 862 781 595 364 151	-83 -84 -80 -68 -55	-13664 -14876 -11416 -9604 -7352	-5560 -7460 -7944 -6984 -5996	7564 6260 6988 8132 8100
2182	106	536	0	15	321	3	96	0	0	0	-30 -172 -263 -285 -206 -30 188 399 579 706 781 825 857 881 895 900 901 903 904 908 914 916 919 923 921 921 930 933 923 910 903 899 902 909 912 909 906 899 890 885 888 901 919 940 962 981 985 982 981 980	-46 -38 -32 -27 -15	-6120 -5376 -5652 -8152 -10660	-4772 -4816 -4760 -6648 -12144	8484 9132 8484 8488 8556
2183	106	536	0	15	321	3	96	0	0	1	976 968 950 927 908 890 870 854 841 822 797 771 746 727 708 683 657 644 643 640 632 646 656 614 569 542 519 527 554 563 557 555 558 558 550 547 560 574 578 579 581 582 587 593 592 574 548 529 518 519	0 18 35 49 53	-13516 -11868 -9932 -7096 -5792	-10524 -6852 -6004 -5196 -3276	6656 7120 9680 8272 9068
2184	106	536	0	15	321	3	96	0	0	0	524 521 503 465 421 397 395 408 420 421 414 408 401 389 373 357 346 345 345 346 354 370 393 427 480 552 608 601 505 336 152 2 -101 -163 -197 -204 -173 -99 4 110 200 258 280 283 278 276 282 284 281 285	52 48 46 48 54	-6064 -6116 -11544 -16064 -14448	-3180 -4248 -6400 -9664 -7808	9204 8396 7460 8444 6116
2185	106	532	0	15	321	3	96	0	0	1	292 297 301 302 301 301 299 292 286 287 290 278 262 262 277 310 340 354 363 377 391 395 384 375 382 394 403 408 407 398 389 383 382 383 383 380 375 371 364 361 357 340 312 280 255 247 249 253 246 226	63 73 76 71 60	-10560 -7940 -6656 -5564 -5372	-7668 -7036 -5312 -4540 -4924	7524 1916 8492 8928 9184
2186	109	532	0	15	321	3	96	0	0	0	210 199 195 201 213 228 229 204 163 120 86 64 47 30 7 -15 -22 -14 5 34 64 81 84 83 86 99 113 107 84 70 75 93 118 136 194 261 204 96 22 -22 10 81 107 92 95 128 155 158 160 176	45 35 33 37 43	-5568 -10448 -14444 -13540 -11300	-4620 -9436 -12180 -10000 -6964	8396 7948 5980 6024 7540
2187	109	532	0	15	321	3	96	0	0	0	183 167 156 167 194 228 284 362 425 423 328 156 -28 -184 -308 -396 -461 -508 -501 -421 -304 -174 -44 56 107 120 110 94 78 61 37 -4 -54 -76 -57 -13 37 70 88 112 141 162 157 128 85 40 6 -6 7 38	48 47 37 23 6	-8472 -6452 -5604 -5560 -5860	-5416 -4172 -3452 -3168 -3920	8248 8832 9296 9336 8440
2188	109	524	0	15	321	3	96	0	0	1	73 102 118 122 134 153 158 145 126 107 92 83 79 73 61 44 26 17 32 64 99 114 98 65 23 -22 -64 -104 -140 -168 -180 -165 -143 -127 -114 -105 -101 -99 -103 -116 -126 -126 -122 -126 -134 -139 -137 -133 -122 -93	-6 -10 -8 -4 -1	-10500 -16324 -14824 -11068 -8952	-6292 -6804 -8752 -7252 -6544	7388 5384 5388 6628 8152
2189	109	524	0	15	321	3	96	0	0	0	-42 -90 -137 -154 -141 -97 -51 -42 -46 -39 -40 -60 -90 -129 -175 -225 -268 -292 -279 -235 -185 -145 -138 -167 -199 -219 -238 -256 -275 -301 -332 -356 -374 -378 -365 -347 -313 -265 -236 -272 -397 -575 -743 -873 -976 -1071 -1158 -1207 -1191 -1124	-9 -25 -48 -74 -93	-6264 -4344 -4804 -7336 -13884	-3896 -4240 -4884 -4384 -11208	8576 9000 9012 7944 6604
2190	109	524	0	15	321	3	96	0	0	1	-1012 -875 -757 -674 -633 -628 -617 -591 -569 -563 -568 -591 -632 -686 -724 -673 -633 -720 -817 -885 -916 -855 -787 -801 -860 -897 -904 -915 -944 -983 -1021 -1056 -1086 -1098 -1106 -1133 -1174 -1206 -1219 -1219 -1217 -1224 -1246 -1281 -1316 -1358 -1410 -1449 -1459 -1449	-102 -104 -104 -107 -116	-15844 -13216 -12056 -9600 -6092	-10552 -9888 -6948 -5556 -3384	5404 5380 9380 7084 9172
2191	109	524	0	15	321	3	96	0	0	0	-1436 -1430 -1444 -1476 -1497 -1506 -1523 -1554 -1595 -1646 -1698 -1723 -1716 -1715 -1734 -1767 -1793 -1782 -1736 -1680 -1637 -1622 -1629 -1647 -1673 -1708 -1748 -1780 -1785 -1747 -1664 -1552 -1453 -1398 -1377 -1366 -1355 -1338 -1326 -1331 -1339 -1333 -1314 -1298 -1295 -1302 -1307 -1305 -1299 -1292	-132 -152 -169 -172 -162	-5888 -6496 -16264 -15440 -12972	-3564 -4212 -9284 -7916 -8396	8840 8328 6428 6408 6368
2192	109	524	0	15	321	3	96	0	0	0	-1279 -1257 -1234 -1217 -1206 -1193 -1169 -1141 -1124 -1116 -1107 -1095 -1080 -1063 -1040 -1003 -951 -891 -811 -717 -663 -697 -832 -1031 -1221 -1379 -1502 -1584 -1619 -1582 -1466 -1310 -1150 -998 -872 -789 -746 -724 -705 -682 -658 -636 -618 -600 -585 -578 -575 -559 -512 -443	-142 -115 -88 -68 -55	-10584 -6584 -5692 -4916 -5912	-7032 -5152 -4452 -4792 -4328	6948 8652 9108 9060 9112
2193	109	528	0	15	321	3	96	0	0	1	-388 -369 -379 -395 -395 -386 -395 -419 -439 -444 -430 -411 -398 -384 -367 -351 -339 -324 -303 -275 -244 -211 -172 -128 -92 -64 -43 -25 -7 9 19 21 20 17 19 28 71 100 11 -80 -95 -76 -12 47 54 38 55 90 98 87	-47 -39 -23 -2 21	-6752 -16224 -13804 -11312 -10024	-5336 -10756 -10428 -9308 -6340	7904 6280 5980 6788 7568
2194	109	528	0	15	321	3	96	0	0	0	88 103 114 111 106 107 104 92 75 72 84 96 100 96 90 89 92 91 80 68 61 57 50 35 18 7 1 -10 -24 -33 -36 -35 -36 -40 -44 -44 -43 -42 -44 -50 -52 -48 -37 -15 18 58 116 197 271 284	46 64 72 72 68	-6472 -5556 -5704 -5828 -17272	-4480 -3176 -2832 -3836 -8372	8604 9068 9468 8980 6156
2195	109	528	0	15	321	3	96	0	0	0	204 43 -133 -272 -368 -428 -460 -471 -439 -355 -247 -127 -16 66 119 149 169 185 194 200 213 235 252 256 255 261 280 308 331 346 362 378 395 410 420 425 426 427 430 436 444 449 449 450 454 460 464 471 477 476	65 67 77 91 104	-17228 -15300 -12144 -9496 -5976	-7700 -8588 -8088 -6952 -4260	7212 6436 7116 8444 8872
2196	112	516	0	15	321	3	96	0	0	1	469 456 434 408 387 375 367 352 333 311 284 263 249 233 215 196 169 135 108 87 64 44 29 22 23 28 46 66 59 25 -17 -54 -71 -70 -73 -88 -105 -112 -112 -113 -113 -104 -87 -70 -46 -13 18 34 32 25	108 102 86 64 47	-5236 -5232 -5892 -15436 -14872	-4292 -5020 -4768 -14016 -11700	8996 9196 8740 9152 6392
2197	112	516	0	15	321	3	96	0	0	0	30 46 57 45 16 -17 -42 -56 -57 -47 -30 -5 23 43 55 61 71 101 133 106 61 44 44 79 136 175 217 290 343 306 158 -58 -272 -457 -616 -741 -827 -861 -816 -704 -562 -404 -257 -155 -103 -91 -94 -90 -73 -60	36 32 31 29 18	-13484 -12088 -7428 -6396 -5640	-11348 -7256 -4616 -4192 -3492	6228 6872 8068 9068 9124
2198	112	516	0	15	321	3	96	0	0	1	-62 -73 -89 -105 -117 -126 -136 -146 -155 -174 -208 -247 -278 -290 -280 -250 -211 -171 -130 -102 -92 -92 -97 -98 -96 -93 -93 -95 -92 -84 -82 -86 -86 -84 -91 -112 -137 -156 -160 -156 -156 -164 -178 -191 -198 -204 -221 -249 -282 -307	2 -19 -39 -50 -54	-6092 -5992 -16724 -17524 -15360	-3040 -4144 -7256 -7168 -8100	9096 8364 7220 4940 5740
2199	112	516	0	15	321	3	96	0	0	0	-322 -324 -320 -320 -323 -322 -311 -295 -287 -287 -289 -291 -288 -282 -273 -262 -245 -222 -198 -185 -181 -172 -152 -124 -105 -105 -121 -143 -157 -158 -153 -148 -144 -144 -146 -146 -137 -123 -105 -83 -62 -46 -32 -18 -7 -17 -49 -78 -83 -44	-50 -40 -31 -28 -29	-11548 -6840 -5820 -5344 -5572	-7728 -5904 -4376 -4064 -4612	6632 8488 8588 8872 9092
2200	112	516	0	15	321	3	96	0	0	0	49 165 257 310 359 390 336 189 -10 -213 -399 -567 -696 -772 -779 -690 -523 -334 -142 45 204 312 379 439 498 540 569 601 636 662 670 663 655 664 696 744 794 829 853 883 922 962 1002 1044 1091 1129 1105 1060 1064 1104	-35 -40 -34 -22 -4	-7296 -12680 -13872 -13784 -9340	-6508 -13228 -12096 -11364 -5836	8364 8244 6636 5808 8356
2201	112	508	0	15	321	3	96	0	0	1	1167 1228 1261 1275 1295 1321 1334 1337 1343 1355 1364 1365 1366 1372 1368 1347 1325 1319 1321 1323 1317 1300 1276 1257 1251 1254 1254 1236 1205 1176 1161 1166 1174 1172 1163 1157 1159 1162 1161 1156 1143 1134 1134 1138 1149 1158 1153 1140 1130 1129	15 30 36 38 36	-7392 -6576 -5644 -5728 -11368	-4840 -4332 -3556 -3196 -6408	8096 8480 9108 9000 7844
2202	112	508	0	15	321	3	96	0	0	0	1127 1112 1083 1053 1038 1032 1030 1023 1008 993 979 961 938 923 918 920 924 916 902 889 872 859 855 854 851 851 849 844 854 884 931 1006 1098 1152 1124 1000 799 593 431 298 180 79 31 71 194 354 511 638 726 773	37 44 56 71 84	-16820 -16644 -14496 -8132 -6344	-9936 -7556 -8172 -6520 -5344	7640 6048 5964 8472 8728
2203	112	516	0	15	321	3	96	0	0	1	788 789 792 796 793 787 779 772 773 782 788 787 776 754 741 742 745 746 740 722 706 714 738 751 740 717 703 722 758 768 745 711 677 655 642 622 599 588 573 546 517 499 486 473 465 465 469 476 481 483	90 88 79 65 58	-5500 -5208 -5784 -12784 -19476	-4180 -4300 -4684 -10372 -8156	8700 9168 8308 8468 5964
2204	112	516	0	15	321	3	96	0	0	0	478 468 452 431 413 397 373 349 335 335 346 359 369 377 384 396 452 506 435 353 330 312 349 409 422 406 415 441 440 411 387 376 363 343 320 298 276 256 242 230 217 204 192 183 178 174 174 179 179 165	56 59 64 68 64	-14488 -13008 -8036 -7008 -6064	-11648 -9920 -4992 -4560 -4020	6916 6120 8116 8332 8576
2205	112	516	0	15	321	3	96	0	0	0	152 152 160 176 191 199 210 243 306 376 400 338 201 50 -68 -155 -222 -282 -333 -349 -313 -241 -153 -66 -1 33 45 53 67 79 85 89 98 109 119 123 126 137 152 165 173 177 178 174 166 161 158 156 157 155	54 40 27 21 21	-6208 -6564 -16644 -15396 -15988	-2828 -4564 -8144 -11324 -7580	9148 7920 7192 7224 6168
2206	115	504	0	15	321	3	96	0	0	1	145 133 134 149 169 189 205 212 222 236 250 259 261 255 250 248 246 246 245 232 212 192 168 147 134 123 112 103 91 72 47 18 -3 -12 -7 0 -7 -22 -32 -36 -34 -35 -41 -47 -54 -64 -65 -47 -32 -33	28 37 43 40 30	-9976 -7344 -5956 -5320 -5344	-7132 -6028 -4876 -4580 -4724	8060 8556 8752 8856 9128
2207	115	504	0	15	321	3	96	0	0	0	-35 -45 -68 -88 -110 -142 -175 -201 -222 -241 -263 -286 -313 -345 -374 -383 -369 -345 -321 -293 -256 -217 -181 -162 -171 -198 -212 -196 -166 -138 -118 -103 -73 -11 64 122 125 44 -101 -258 -399 -498 -490 -560 -751 -851 -858 -784 -640 -532	12 -4 -12 -14 -12	-6464 -16332 -14196 -13980 -9216	-5584 -13772 -12776 -11240 -6028	8164 7604 7672 6452 8428
2208	115	504	0	15	321	3	96	0	0	1	-520 -545 -547 -548 -583 -635 -670 -690 -716 -745 -772 -800 -831 -864 -892 -915 -939 -965 -983 -991 -1000 -1015 -1026 -1034 -1042 -1051 -1062 -1073 -1079 -1085 -1091 -1105 -1132 -1170 -1217 -1268 -1296 -1292 -1282 -1281 -1291 -1300 -1299 -1291 -1290 -1308 -1340 -1376 -1406 -1436	-10 -15 -29 -48 -70	-7552 -6236 -5988 -5668 -7628	-4692 -4340 -3488 -3848 -4904	8084 8732 9048 8348 8084
2209	115	504	0	15	321	3	96	0	0	0	-1469 -1497 -1515 -1530 -1540 -1543 -1529 -1497 -1461 -1430 -1405 -1386 -1368 -1349 -1336 -1331 -1326 -1322 -1320 -1310 -1293 -1270 -1236 -1201 -1178 -1169 -1164 -1159 -1151 -1136 -1122 -1121 -1129 -1140 -1145 -1144 -1147 -1160 -1186 -1212 -1228 -1232 -1234 -1239 -1248 -1257 -1266 -1271 -1272 -1268	-85 -90 -87 -76 -65	-16816 -17420 -16312 -9076 -6380	-8428 -7816 -7592 -7232 -5580	5204 6752 6040 8508 9184
2210	115	504	0	15	321	3	96	0	0	0	-1259 -1255 -1262 -1279 -1291 -1293 -1279 -1249 -1204 -1142 -1061 -992 -986 -1064 -1209 -1360 -1472 -1551 -1621 -1692 -1746 -1751 -1696 -1597 -1481 -1376 -1273 -1167 -1103 -1104 -1144 -1186 -1213 -1214 -1198 -1193 -1204 -1211 -1208 -1209 -1219 -1230 -1229 -1214 -1191 -1163 -1133 -1102 -1073 -1052	-61 -66 -78 -95 -109	-5500 -5796 -5368 -6728 -13908	-4344 -4872 -4356 -5884 -12900	8584 8884 8648 7708 8644
2211	115	504	0	15	321	3	96	0	0	1	-1044 -1038 -1022 -996 -968 -945 -926 -906 -881 -853 -825 -797 -767 -732 -702 -669 -641 -647 -659 -650 -626 -591 -567 -569 -579 -572 -560 -566 -582 -594 -596 -591 -591 -601 -613 -617 -617 -616 -617 -620 -620 -618 -617 -613 -609 -609 -600 -577 -548 -526	-117 -116 -109 -102 -97	-14000 -12008 -9164 -7560 -6260	-13200 -6964 -5052 -4752 -4176	7012 6464 8444 7992 8380
2212	115	504	0	15	321	3	96	0	0	0	-521 -526 -525 -510 -490 -480 -486 -505 -526 -538 -543 -550 -558 -565 -570 -571 -562 -544 -526 -515 -513 -512 -515 -518 -518 -515 -513 -510 -504 -493 -472 -436 -389 -330 -249 -160 -105 -119 -215 -376 -537 -655 -739 -799 -835 -839 -792 -692 -571 -466	-96 -102 -110 -111 -107	-5736 -5992 -8784 -15312 -17172	-3476 -4120 -5464 -5388 -7412	9104 8196 7780 6712 5936
2213	115	500	0	15	321	3	96	0	0	1	-396 -366 -362 -363 -351 -323 -308 -320 -330 -327 -317 -298 -281 -271 -257 -237 -218 -206 -196 -180 -159 -139 -123 -108 -97 -84 -65 -44 -25 -17 -20 -16 8 43 67 71 70 73 85 107 128 136 138 136 127 108 95 93 95 93	-97 -85 -74 -70 -70	-10584 -8732 -6572 -6048 -5312	-7496 -6612 -5408 -4564 -4664	7252 8588 8244 8800 8972
2214	115	500	0	15	321	3	96	0	0	0	28 -4 -14 -6 12 22 1 -44 -89 -123 -134 -127 -121 -125 -145 -174 -194 -202 -201 -185 -157 -132 -114 -94 -76 -65 -54 -39 -16 7 22 34 47 65 88 102 107 111 121 137 150 172 194 169 135 133 146 176 216 235	-75 -77 -71 -62 -49	-5212 -9128 -14088 -12272 -11096	-4664 -7588 -10584 -10384 -6612	8404 8596 6576 6120 7144
2215	115	500	0	15	321	3	96	0	0	0	226 213 209 205 201 213 243 275 312 381 467 497 422 245 8 -213 -391 -531 -632 -691 -686 -598 -446 -265 -89 46 126 164 186 202 208 206 200 197 204 213 212 210 213 216 218 222 226 227 227 226 223 223 229 238	-36 -29 -28 -30 -34	-6776 -6380 -5868 -6252 -14236	-4896 -3848 -3640 -4172 -7076	8236 8984 8688 8432 7688
2216	117	496	0	15	321	3	96	0	0	1	247 257 265 273 281 287 288 279 259 245 247 257 268 280 289 299 302 289 265 237 214 194 168 133 95 65 40 9 -20 -37 -48 -52 -52 -57 -63 -66 -68 -64 -56 -50 -47 -45 -39 -29 -16 -1 16 29 34 36	-32 -25 -14 2 15	-13988 -13296 -9880 -7768 -6080	-13016 -8364 -7684 -6404 -4948	7524 5736 7480 8256 8252
2217	117	496	5	15	321	3	96	0	0	0	42 49 56 52 39 29 24 26 30 24 7 -13 -28 -42 -58 -80 -106 -120 -128 -133 -127 -126 -132 -123 -100 -82 -82 -90 -102 -108 -87 -34 39 105 116 32 -144 -353 -535 -675 -782 -864 -909 -885 -795 -671 -537 -412 -320 -275	21 22 17 9 10	-5524 -5376 -5660 -20468 -18172	-4776 -4600 -4996 -14244 -8272	9424 8844 8044 7232 6656
2218	117	492	5	15	321	3	96	0	0	1	-268 -276 -270 -243 -223 -220 -213 -188 -150 -113 -90 -78 -46 -9 -19 -45 -57 -51 -14 16 15 7 12 26 34 30 19 14 17 17 12 14 20 21 10 -7 -26 -41 -52 -61 -69 -81 -100 -120 -135 -149 -162 -172 -182 -196	16 25 36 44 42	-12440 -10372 -8212 -6884 -5784	-8900 -6004 -5472 -4568 -2948	6028 7384 8232 8132 9232
2219	117	492	5	15	321	3	96	0	0	0	-213 -236 -260 -278 -292 -308 -326 -343 -361 -380 -398 -417 -430 -430 -425 -423 -426 -431 -436 -434 -423 -409 -399 -399 -404 -399 -381 -367 -371 -391 -416 -434 -447 -462 -474 -477 -469 -459 -453 -455 -459 -457 -452 -447 -445 -455 -476 -498 -510 -514	34 24 17 17 24	-5520 -7260 -17380 -15560 -11580	-3412 -4636 -9068 -7352 -8040	8468 7964 7940 6252 6740
2220	117	492	5	15	321	3	96	0	0	0	-519 -521 -515 -497 -458 -405 -340 -252 -156 -101 -138 -276 -476 -668 -830 -972 -1089 -1173 -1188 -1100 -932 -735 -547 -405 -318 -267 -240 -225 -211 -196 -181 -169 -160 -150 -142 -128 -110 -97 -92 -91 -85 -74 -67 -68 -67 -62 -53 -37 -14 27	38 54 65 68 66	-9156 -7108 -6088 -5252 -5364	-7100 -5784 -4616 -4612 -4556	8108 8336 8696 9116 8416
2221	117	504	5	15	321	3	96	0	0	1	68 73 47 26 23 37 59 69 63 62 70 72 61 54 57 63 65 65 68 70 69 68 66 67 70 77 89 102 104 92 86 99 117 138 158 159 150 158 175 195 217 234 245 263 290 310 318 319 323 329	59 55 58 65 74	-7744 -11900 -13064 -11496 -8992	-6628 -12944 -10172 -6792 -5332	8168 7928 5544 6200 7968
2222	117	504	5	15	321	3	96	0	0	0	334 336 332 322 310 296 278 263 248 226 205 192 186 184 179 173 175 183 194 199 196 195 204 215 217 212 213 234 273 325 398 485 544 522 405 217 24 -139 -277 -391 -481 -522 -483 -371 -220 -57 85 184 241 273	82 81 73 63 53	-7240 -6092 -5832 -6140 -15384	-4860 -3340 -2680 -3820 -8520	7916 9384 9188 8292 7340
2223	117	492	5	15	321	3	96	0	0	1	299 321 335 342 345 348 356 366 374 380 386 392 401 414 427 436 441 446 449 449 454 467 486 507 527 547 560 572 589 612 644 672 664 620 591 606 643 679 688 674 663 664 668 660 646 640 641 636 623 612	52 60 75 93 106	-15964 -13676 -9880 -6932 -5784	-11152 -7896 -7436 -6476 -5064	7628 6132 7900 7580 8952
2224	117	492	5	15	321	3	96	0	0	0	610 614 621 627 625 613 600 596 602 615 629 639 646 654 662 662 650 649 659 654 658 676 694 713 728 721 684 645 619 596 576 558 539 525 518 520 529 543 559 581 612 634 648 669 689 693 685 674 663 667	109 104 91 79 75	-5468 -5524 -5816 -15236 -14620	-4600 -4536 -4756 -12368 -11076	9288 8944 8160 7412 5952
2225	117	492	5	15	321	3	96	0	0	0	700 753 817 900 999 1102 1162 1088 903 706 539 423 348 279 211 195 260 364 474 577 652 686 688 680 680 682 677 667 659 653 645 633 621 612 607 606 606 602 594 590 592 595 599 604 608 615 627 636 639 640	78 84 90 89 78	-12444 -10364 -7620 -6364 -5604	-8768 -5792 -4732 -4200 -2776	6388 8328 8516 8568 9152
2226	120	496	5	15	321	3	96	0	0	1	641 644 651 655 655 652 648 646 644 640 632 620 608 597 585 571 557 545 532 518 512 517 523 526 528 528 530 537 542 542 537 532 531 534 541 548 556 573 596 592 557 531 529 549 584 608 613 617 631 640	61 43 32 30 36	-5688 -8216 -18076 -15228 -11032	-3664 -5468 -7920 -8340 -7792	8396 7676 7776 6016 7228
2227	120	496	5	15	321	3	96	0	0	0	633 612 592 575 561 547 528 506 481 462 453 448 441 431 421 413 412 416 420 420 408 384 361 355 369 401 442 494 565 625 612 503 323 127 -46 -194 -319 -425 -479 -430 -283 -101 71 207 277 281 257 231 211 200	46 54 53 43 25	-8812 -6572 -4884 -5024 -5108	-6612 -5740 -4288 -4548 -4656	8348 8480 9100 9016 8312
2228	120	492	5	15	321	3	96	0	0	1	195 188 175 161 145 126 111 110 129 158 189 222 265 312 355 387 403 398 378 364 366 374 384 393 400 407 419 477 522 460 387 356 334 349 378 371 352 357 364 343 303 270 248 226 194 161 138 116 88 55	5 -7 -12 -12 -9	-9236 -13460 -13284 -11256 -8496	-7788 -13236 -9572 -6972 -5536	7804 6772 5788 7148 8308
2229	120	492	5	15	321	3	96	0	0	0	28 8 -11 -34 -55 -70 -81 -89 -92 -97 -109 -119 -124 -124 -120 -108 -89 -67 -55 -47 -35 -24 -23 -36 -57 -78 -89 -94 -103 -121 -144 -165 -180 -191 -199 -208 -219 -230 -239 -248 -256 -263 -264 -256 -233 -194 -142 -77 -2 83	-7 -14 -23 -35 -42	-6952 -5596 -5636 -6596 -14232	-4460 -3160 -2952 -4432 -7296	8476 9068 8984 8024 7232
2230	120	492	5	15	321	3	96	0	0	0	186 313 424 460 407 271 108 -17 -103 -166 -207 -218 -187 -98 27 147 240 302 340 367 387 400 408 407 403 404 405 401 393 378 364 358 362 368 361 343 328 322 321 320 315 310 314 322 326 320 311 303 303 309	-38 -26 -8 9 20	-16616 -13244 -9680 -7512 -5720	-7856 -8612 -7788 -6028 -4160	5804 6744 7976 8628 8816
2231	120	500	5	15	321	3	96	0	0	1	315 313 302 285 273 273 281 285 279 263 245 227 205 180 150 110 72 65 101 149 165 139 79 16 -21 -35 -52 -75 -86 -83 -74 -58 -35 -2 40 88 137 182 220 254 278 288 296 306 320 337 348 348 343 347	19 10 -5 -13 -12	-5044 -5104 -5868 -15176 -14832	-4660 -4572 -5012 -11012 -12308	9140 8828 8152 7540 5740
2232	120	500	5	15	321	3	96	0	0	0	352 349 338 332 337 342 351 359 314 256 239 226 215 209 186 151 129 112 79 39 14 8 12 23 51 103 159 168 88 -76 -265 -423 -539 -621 -683 -728 -737 -685 -585 -468 -354 -267 -218 -196 -189 -183 -175 -169 -169 -169	-3 9 20 21 13	-13172 -10372 -7440 -6068 -5680	-8704 -6028 -4952 -3372 -2768	6188 8324 8308 9044 9456
2233	120	488	5	15	321	3	96	0	0	1	-170 -173 -177 -180 -184 -192 -197 -200 -201 -200 -201 -205 -209 -214 -216 -209 -191 -161 -119 -60 8 76 145 214 271 316 352 386 422 450 469 482 493 511 535 572 610 610 589 567 539 528 544 570 588 604 616 609 592 583	-1 -16 -22 -18 -5	-5468 -7472 -17224 -15920 -11580	-3824 -4880 -8304 -7832 -7896	8552 7736 6324 5644 6956
2234	120	488	5	15	321	3	96	0	0	0	578 573 563 548 536 526 513 498 481 465 458 465 476 476 466 455 453 459 456 435 408 389 378 361 330 293 266 253 247 242 233 217 199 178 159 147 139 132 130 152 196 220 196 153 118 111 144 209 268 284	12 26 30 23 8	-8792 -6424 -5316 -5452 -5660	-6904 -5756 -4524 -4480 -4704	8516 8520 9036 9068 8624
2235	120	488	5	15	321	3	96	0	0	0	234 120 -19 -128 -192 -223 -230 -213 -161 -65 58 183 296 381 429 445 450 458 466 467 468 481 498 509 515 521 533 573 612 571 508 467 433 428 433 416 386 366 353 331 303 282 267 247 223 208 196 173 138 103	-6 -12 -12 -7 -3	-11176 -14580 -12468 -11180 -8192	-9336 -11732 -10252 -7744 -4900	8596 7008 6408 2000 8348
2236	121	492	5	15	321	3	96	0	0	1	83 70 52 32 13 -3 -14 -21 -26 -29 -35 -49 -69 -102 -137 -154 -157 -162 -181 -202 -219 -227 -226 -231 -249 -268 -277 -285 -300 -317 -330 -343 -355 -359 -356 -350 -348 -353 -354 -331 -282 -205 -109 -18 48 90 115 130 140 149	-5 -14 -27 -40 -45	-6248 -5412 -5472 -6444 -15596	-4024 -3020 -3196 -4520 -7624	8852 9032 8840 8296 7564
2237	121	492	5	15	321	3	96	0	0	0	157 167 176 182 184 192 211 241 273 289 295 303 316 331 341 349 364 395 440 496 563 640 700 693 582 383 167 -22 -187 -333 -451 -515 -498 -399 -261 -131 -41 13 37 38 35 31 24 14 6 1 -12 -34 -56 -65	-42 -29 -12 4 11	-17020 -13484 -9520 -7148 -5684	-7788 -8316 -7232 -6116 -4576	5508 6004 8140 8432 8752
2238	121	492	5	15	321	3	96	0	0	1	-64 -66 -77 -94 -112 -128 -149 -178 -209 -239 -253 -238 -211 -185 -159 -138 -144 -188 -248 -300 -337 -349 -351 -357 -365 -368 -358 -338 -312 -275 -231 -186 -138 -89 -51 -25 -10 -7 -8 -9 -15 -17 -13 3 29 45 53 113 134 54	10 -1 -15 -22 -24	-5144 -5484 -6072 -17552 -10100	-4504 -4552 -5340 -9408 -6032	9468 8736 8200 6840 -22168
2239	121	492	5	15	321	3	96	0	0	0	-43 -57 -22 21 19 -12 -33 -48 -80 -118 -138 -145 -164 -202 -253 -307 -364 -417 -458 -489 -518 -545 -560 -567 -576 -585 -585 -581 -583 -594 -603 -603 -594 -579 -568 -559 -539 -509 -471 -422 -358 -271 -183 -148 -210 -372 -584 -784 -958 -1103	-18 -17 -24 -34 -47	-7784 -5560 -5392 -5848 -6976	-5248 -3196 -2676 -3716 -4768	7980 8968 8672 8700 8068
2240	121	492	5	15	321	3	96	0	0	0	-1195 -1227 -1189 -1076 -917 -749 -594 -471 -395 -361 -345 -326 -306 -287 -257 -213 -163 -104 -36 37 115 192 258 315 366 417 463 503 538 568 596 624 650 679 712 744 777 806 833 864 894 927 958 984 1008 1031 1050 1062 1068 1073	-58 -59 -52 -36 -15	-14280 -16712 -13608 -10400 -6384	-12416 -7964 -8740 -7060 -4996	7248 5832 5744 7464 8512
2241	121	488	5	15	321	3	96	0	0	1	1078 1078 1068 1061 1057 1049 1042 1037 1033 1030 1031 1033 1015 991 976 960 955 961 963 961 961 970 981 983 977 968 966 979 1004 1026 1037 1045 1051 1051 1040 1022 1002 986 970 943 910 889 876 862 854 868 904 940 938 889	5 18 26 26 25	-5188 -4996 -5376 -8220 -13800	-4208 -4568 -4572 -7280 -12712	8472 8908 8884 8376 7480
2242	121	488	5	15	321	3	96	0	0	0	825 773 746 730 704 673 653 647 647 662 704 774 859 955 1033 1049 983 835 649 480 347 250 188 164 195 284 412 545 654 732 748 722 703 697 712 735 744 739 735 738 739 735 729 724 724 726 724 721 719 712	31 41 53 65 72	-14660 -14280 -12000 -7536 -6720	-12908 -10860 -7464 -5516 -4372	6188 5848 7868 8008 8688
2243	121	488	5	15	321	3	96	0	0	1	710 715 718 715 710 703 693 690 695 698 698 700 705 707 704 698 690 679 671 665 656 641 624 610 595 578 565 560 560 555 540 519 500 486 476 465 449 432 420 407 392 379 369 358 348 340 334 335 339 339	71 66 59 51 46	-5924 -5472 -6828 -10624 -16476	-3736 -3448 -4400 -5408 -9276	8776 8888 8032 7540 8052
2244	121	488	5	15	321	3	96	0	0	0	332 319 308 309 321 331 329 315 297 287 286 283 276 262 247 231 214 199 188 180 175 172 172 174 172 165 159 155 152 151 155 171 203 250 312 385 452 469 401 254 85 -56 -165 -250 -310 -347 -350 -296 -194 -70	48 53 61 70 72	-16512 -11652 -9376 -7432 -6104	-8756 -7720 -6820 -5300 -4560	5616 6780 7780 8508 8728
2245	121	488	5	15	321	3	96	0	0	1	59 160 211 225 231 241 251 254 251 251 258 263 259 255 256 265 274 277 275 273 270 269 272 275 273 269 268 266 267 272 280 289 294 296 296 294 289 286 282 266 246 229 216 208 201 183 155 130 111 98	67 57 40 23 14	-5436 -5596 -6216 -8980 -16300	-4336 -4784 -4912 -7656 -10848	8880 9000 8300 7992 6892
2246	122	488	5	15	321	3	96	0	0	0	95 95 98 112 129 137 135 128 121 114 112 111 105 97 95 103 118 139 163 201 244 215 147 119 123 164 216 217 177 157 167 174 162 147 143 147 154 155 146 135 127 122 126 131 122 96 71 62 67 80	10 10 14 16 12	-14384 -11792 -9688 -7636 -5656	-11344 -8100 -6136 -4936 -3744	6276 7068 8204 8396 8936
2247	122	488	5	15	321	3	96	0	0	0	96 113 132 163 216 293 364 376 299 141 -37 -186 -304 -396 -469 -518 -519 -456 -348 -216 -94 -9 35 52 63 77 84 80 78 84 91 93 88 80 73 69 67 68 69 69 69 69 70 71 72 71 63 56 57 57	2 -10 -23 -34 -37	-5576 -6116 -6728 -8188 -17372	-3368 -3960 -4568 -5160 -8588	9016 8964 8236 7860 5624
2248	122	480	5	15	321	3	96	0	0	1	56 61 69 81 98 111 114 111 110 111 110 107 93 69 45 34 34 32 23 7 -16 -34 -41 -44 -48 -55 -60 -62 -64 -65 -63 -59 -53 -50 -50 -48 -40 -23 -3 10 18 27 38 49 53 46 32 17 5 -5	-33 -23 -9 3 6	-16104 -13364 -9988 -5972 -5712	-8804 -7892 -6940 -4968 -4440	5736 6236 7720 8212 8576
2249	122	480	5	15	321	3	96	0	0	0	-18 -36 -57 -76 -85 -90 -104 -120 -129 -131 -128 -123 -123 -125 -126 -128 -135 -147 -152 -143 -121 -84 -42 2 60 113 104 5 -168 -358 -526 -670 -794 -889 -927 -884 -758 -577 -392 -239 -144 -114 -120 -124 -116 -108 -108 -107 -95 -67	0 -14 -34 -52 -61	-5468 -5524 -6760 -14848 -16864	-4488 -4624 -4816 -10868 -9832	8796 8920 8216 7108 7128
2250	122	472	5	15	321	3	96	0	0	1	-32 5 45 81 105 117 121 124 131 142 156 168 175 185 192 197 202 210 223 237 251 270 287 278 265 254 237 238 259 265 238 204 183 176 182 189 185 174 164 155 141 120 105 97 89 73 60 51 31 6	-64 -60 -52 -45 -43	-14880 -14352 -9512 -7824 -6836	-11044 -10384 -6076 -5104 -4196	5960 5684 7904 7896 8752
2251	122	472	5	15	321	3	96	0	0	0	-7 -15 -21 -22 -26 -30 -22 -4 9 11 8 9 16 27 36 32 16 -1 -6 -2 -5 -22 -48 -70 -81 -85 -89 -96 -103 -107 -109 -110 -112 -116 -118 -118 -119 -118 -116 -108 -86 -45 9 79 159 194 134 -28 -245 -445	-45 -50 -56 -60 -56	-5892 -6184 -6792 -8372 -15272	-3920 -3532 -4384 -5432 -9168	8492 8864 8128 7612 7896
2252	122	472	5	15	321	3	96	0	0	0	-587 -675 -722 -735 -705 -613 -470 -314 -171 -61 4 31 39 44 51 53 47 37 30 28 38 52 58 57 56 59 71 90 96 85 83 93 107 124 137 145 162 189 212 224 229 237 252 270 279 277 271 264 255 247	-44 -27 -5 15 24	-15352 -13084 -10008 -7676 -5588	-8452 -7884 -7128 -6008 -4476	5332 6568 7772 8296 8756
2253	122	480	5	15	321	3	96	0	0	1	241 233 220 205 192 182 178 179 171 156 141 127 117 112 102 84 66 57 47 36 23 8 -6 -15 -22 -28 -30 -21 -4 13 18 15 16 14 9 -1 -18 -36 -51 -67 -95 -135 -166 -185 -196 -195 -187 -176 -158 -134	25 16 1 -11 -15	-5176 -5496 -6208 -8816 -15144	-4556 -4568 -4872 -7224 -13180	8972 8932 8264 8428 6716
2254	122	480	5	15	321	3	96	0	0	0	-112 -103 -101 -89 -73 -60 -50 -45 -42 -33 -7 31 81 148 228 300 327 247 79 -95 -249 -365 -439 -489 -521 -506 -435 -342 -251 -170 -110 -79 -75 -85 -94 -97 -104 -118 -136 -156 -181 -202 -217 -238 -263 -284 -306 -330 -350 -362	-11 -2 10 16 13	-13596 -11356 -9068 -6488 -5852	-10956 -7484 -5928 -4244 -3828	5724 7420 8148 8692 8892
2255	122	484	5	15	321	3	96	0	0	1	-366 -370 -380 -396 -414 -426 -429 -430 -437 -443 -444 -446 -451 -457 -462 -465 -470 -480 -494 -508 -519 -528 -538 -555 -575 -589 -599 -611 -622 -630 -642 -657 -673 -688 -704 -718 -730 -735 -722 -691 -646 -585 -515 -446 -375 -309 -252 -202 -162 -134	4 -11 -26 -32 -27	-5696 -6328 -14912 -18032 -16492	-3136 -3856 -6828 -12928 -8512	9184 8916 7112 7176 5920
2256	124	484	5	15	321	3	96	0	0	0	-114 -99 -84 -65 -48 -37 -34 -40 -46 -48 -49 -58 -68 -77 -82 -78 -74 -78 -89 -98 -103 -89 -41 -39 -118 -187 -227 -243 -231 -223 -231 -226 -188 -134 -91 -78 -117 -235 -414 -591 -726 -822 -902 -976 -1030 -1042 -1008 -946 -875 -808	-12 11 33 44 42	-14372 -11092 -6252 -5744 -5664	-9216 -7604 -5256 -4568 -4820	5480 7108 8756 8460 8792
2257	124	472	5	15	321	3	96	0	0	1	-765 -755 -767 -781 -795 -813 -832 -849 -864 -883 -908 -936 -953 -961 -972 -989 -1000 -1005 -1012 -1034 -1063 -1065 -1013 -931 -900 -947 -1028 -1104 -1145 -1148 -1147 -1154 -1150 -1134 -1122 -1120 -1107 -1074 -1031 -984 -941 -899 -862 -843 -837 -832 -831 -831 -833 -838	27 0 -27 -46 -61	-5704 -6208 -10868 -18628 -15016	-4692 -5136 -9548 -8020 -12008	8856 8156 8400 6020 5968
2258	124	472	5	15	322	3	96	0	0	0	-844 -846 -845 -837 -819 -821 -865 -909 -930 -930 -916 -904 -908 -913 -904 -896 -902 -915 -922 -924 -932 -946 -962 -978 -998 -1019 -1034 -1047 -1064 -1090 -1121 -1147 -1162 -1170 -1183 -1201 -1214 -1221 -1223 -1223 -1225 -1226 -1228 -1232 -1234 -1237 -1238 -1224 -1191 -1144	-70 -74 -78 -87 -98	-10780 -9040 -7156 -5992 -5540	-7900 -5516 -4632 -3972 -3404	7464 7736 8108 8648 8844
2259	124	472	5	15	322	3	96	0	0	0	-1079 -994 -929 -940 -1049 -1238 -1443 -1621 -1762 -1869 -1948 -1979 -1929 -1802 -1633 -1455 -1310 -1218 -1175 -1163 -1161 -1153 -1147 -1148 -1149 -1149 -1151 -1155 -1162 -1166 -1162 -1153 -1139 -1119 -1098 -1077 -1055 -1032 -1011 -990 -973 -958 -941 -920 -897 -874 -855 -844 -840 -840	-109 -120 -126 -128 -124	-6140 -7668 -17352 -15840 -12884	-4148 -4976 -9100 -9064 -8464	8744 8236 5324 6296 5900
2260	124	476	5	15	322	3	96	0	0	1	-841 -844 -845 -843 -844 -845 -844 -853 -860 -861 -864 -869 -872 -873 -874 -868 -863 -866 -868 -869 -875 -880 -882 -882 -876 -868 -864 -861 -855 -846 -832 -817 -800 -778 -760 -749 -735 -713 -688 -670 -665 -671 -681 -689 -693 -698 -709 -727 -741 -748	-114 -103 -96 -93 -94	-10220 -7948 -6668 -5516 -5376	-7284 -6208 -5096 -4588 -4456	7592 8636 8460 8920 8852
2261	124	476	5	15	322	3	96	0	0	0	-751 -751 -751 -755 -759 -754 -740 -728 -714 -694 -685 -691 -698 -694 -660 -601 -549 -518 -477 -422 -411 -492 -669 -911 -1160 -1368 -1512 -1588 -1588 -1499 -1333 -1132 -924 -739 -608 -534 -498 -473 -448 -424 -404 -391 -380 -364 -344 -314 -285 -275 -278 -275	-99 -100 -95 -86 -72	-5908 -8096 -13832 -13976 -11612	-4776 -7028 -12844 -11340 -8472	8612 7960 6280 5688 7008
2262	124	464	5	15	322	3	96	0	0	1	-257 -229 -209 -197 -184 -163 -139 -114 -90 -66 -40 -16 5 29 56 80 99 114 128 145 161 173 178 172 160 151 148 156 164 162 159 154 150 150 149 148 152 155 146 132 122 116 114 115 117 117 119 122 126 135	-57 -47 -42 -40 -41	-9688 -7880 -5848 -5668 -6148	-6524 -5096 -3736 -3104 -3680	7808 8184 8652 9016 8848
2263	124	464	5	15	322	3	96	0	0	0	151 171 187 193 198 206 223 246 256 250 237 222 211 203 190 172 155 138 126 124 129 143 159 169 176 187 206 226 242 255 261 266 280 315 372 442 527 630 717 747 687 541 371 236 144 78 23 -7 15 100	-40 -33 -21 -2 21	-6684 -14760 -14812 -11180 -7124	-4448 -12404 -8412 -7420 -5532	7932 7740 5796 7252 8420
2264	124	480	5	15	322	3	96	0	0	1	364 489 589 659 702 728 749 770 792 815 839 862 879 888 899 916 937 958 976 997 1015 1032 1054 1071 1079 1091 1106 1121 1132 1140 1145 1153 1169 1191 1212 1228 1237 1236 1228 1216 1206 1203 1209 1215 1210 1193 1172 1150 1140 1150	44 59 70 73 71	-5940 -5540 -5364 -5592 -17532	-4504 -4520 -4624 -4712 -13084	8848 8856 9160 8668 6452
2265	124	480	5	15	322	3	96	0	0	0	1170 1186 1186 1166 1138 1113 1100 1090 1078 1074 1089 1124 1167 1210 1253 1292 1321 1345 1368 1388 1406 1417 1414 1403 1398 1395 1392 1386 1377 1370 1366 1358 1344 1331 1317 1306 1300 1296 1289 1290 1298 1272 1224 1188 1155 1136 1132 1124 1109 1107	74 83 95 110 122	-15016 -13756 -12948 -8456 -7028	-11016 -11968 -9128 -5696 -4560	7708 6692 5924 8200 8436
2266	125	480	5	15	322	3	96	0	0	0	1123 1144 1166 1207 1269 1309 1279 1158 976 803 675 589 529 481 451 469 540 634 731 818 877 903 911 908 903 899 893 888 882 878 875 874 871 862 854 846 842 842 838 830 823 819 820 818 812 805 798 790 785 784	125 121 113 102 96	-6176 -5720 -6880 -10424 -15344	-3632 -3352 -4656 -5916 -8972	9480 9208 8252 7716 7836
2267	125	468	5	15	322	3	96	0	0	1	783 778 775 779 790 803 817 828 834 834 826 812 793 778 768 753 738 718 701 692 680 667 652 630 610 596 583 571 568 565 558 557 562 567 572 581 584 579 580 587 587 575 563 552 540 526 512 493 473 455	97 104 116 128 133	-15396 -14728 -9988 -7516 -6276	-8364 -8124 -6816 -6012 -5264	6276 6672 7720 8140 8704
2268	125	468	5	15	321	3	96	0	0	0	437 426 421 412 399 387 375 368 367 366 359 348 342 342 348 359 373 394 428 486 546 558 494 367 231 132 64 3 -53 -97 -107 -69 -4 64 125 169 196 209 214 221 227 224 213 205 200 199 206 219 236 254	127 112 90 67 54	-5704 -5876 -6316 -14300 -16408	-4700 -4808 -5056 -11768 -9280	9144 8624 8560 8660 7380
2269	125	464	5	15	321	3	96	0	0	1	271 287 303 320 336 346 354 359 355 346 336 327 320 315 305 293 278 260 251 250 247 239 220 195 168 143 122 101 70 31 -2 -33 -59 -78 -104 -140 -171 -189 -202 -216 -229 -243 -258 -274 -288 -299 -308 -314 -320 -325	49 48 49 46 33	-12792 -10976 -8872 -7136 -6472	-9228 -6956 -5764 -4536 -3872	6292 7440 8248 8392 8804
2270	125	464	5	15	321	3	96	0	0	0	-332 -339 -348 -354 -354 -352 -356 -370 -391 -410 -425 -438 -455 -480 -503 -521 -535 -549 -565 -583 -597 -605 -610 -614 -625 -639 -651 -661 -671 -678 -679 -668 -644 -607 -556 -493 -458 -492 -610 -779 -932 -1032 -1082 -1092 -1067 -1004 -900 -776 -663 -575	12 -13 -37 -52 -53	-5784 -6436 -8020 -15308 -15612	-3552 -4580 -4732 -9084 -7776	9144 8284 8644 6780 6184
2271	125	460	5	15	321	3	96	0	0	1	-512 -468 -445 -433 -422 -414 -413 -424 -436 -440 -438 -433 -436 -451 -461 -464 -459 -448 -441 -447 -457 -456 -445 -438 -436 -436 -439 -449 -456 -455 -455 -452 -448 -446 -449 -451 -455 -464 -479 -496 -517 -536 -550 -561 -576 -599 -623 -640 -653 -664	-45 -28 -10 0 -3	-13196 -10196 -7512 -5772 -5588	-7724 -7096 -6144 -5104 -4800	6296 7416 8260 9184 9084
2272	125	460	5	15	321	3	96	0	0	0	-680 -700 -714 -720 -724 -733 -745 -756 -764 -768 -765 -762 -768 -794 -832 -855 -868 -871 -850 -807 -771 -741 -709 -701 -716 -744 -785 -826 -848 -850 -844 -831 -807 -768 -719 -665 -611 -556 -498 -447 -405 -369 -339 -314 -294 -274 -242 -199 -144 -76	-15 -34 -50 -55 -49	-5504 -6656 -15484 -13468 -12500	-4772 -5452 -11076 -11368 -9092	8972 8504 6488 7436 5736
2273	125	460	5	15	321	3	96	0	0	0	-1 90 184 242 236 162 29 -134 -275 -375 -434 -440 -397 -319 -224 -131 -56 2 47 75 96 115 125 133 148 164 180 197 209 215 220 230 244 259 279 310 350 388 419 440 458 482 511 541 576 619 662 696 725 749	-36 -19 -8 -6 -11	-10392 -8148 -6424 -5816 -5816	-7112 -5872 -3924 -3236 -3752	7148 7988 8836 9324 8888
2274	125	468	5	15	321	3	96	0	0	1	769 785 801 820 840 862 879 888 891 894 900 907 910 910 906 897 888 887 896 911 929 950 970 986 998 1005 1004 1001 1000 999 1002 1015 1034 1057 1072 1069 1050 1030 1022 1023 1028 1032 1022 992 958 934 916 900 885 871	-18 -18 -10 7 31	-7984 -15664 -16012 -13044 -9900	-4344 -9176 -7692 -7820 -7208	8660 6680 5820 6208 7740
2275	125	468	5	15	321	3	96	0	0	0	854 840 830 814 800 796 797 794 787 782 784 787 786 784 777 777 795 832 888 971 1050 1073 1004 836 630 456 330 247 200 190 225 308 425 544 637 702 741 749 745 746 749 748 746 745 749 757 753 740 720 689	55 70 74 68 57	-6216 -5976 -5548 -5644 -6288	-4980 -4488 -4844 -4552 -5464	9104 9184 8908 8752 8568
2276	127	472	5	15	321	3	96	0	0	1	660 644 635 632 634 635 630 619 611 614 626 640 649 658 673 691 701 700 694 686 682 684 683 677 677 676 665 645 630 624 625 643 645 594 533 497 483 490 500 490 471 464 468 471 465 455 449 445 444 451	52 54 61 69 72	-15224 -14124 -12556 -10212 -6820	-10644 -12004 -8184 -5972 -4476	5540 5760 6260 7984 8492
2277	127	472	5	15	321	3	96	0	0	0	458 454 439 423 416 419 422 417 408 397 380 361 339 314 295 280 269 268 270 264 251 226 190 161 158 169 184 197 202 205 218 246 287 337 405 478 498 419 243 26 -165 -306 -399 -436 -417 -345 -226 -94 19 102	65 49 28 9 0	-6672 -6116 -5340 -17568 -15852	-3872 -3024 -3572 -6940 -11444	9180 9276 8832 8108 6660
2278	127	460	5	15	322	3	96	0	0	1	156 184 196 201 213 229 239 241 238 235 238 247 255 254 242 224 212 207 209 213 207 199 191 182 178 184 199 215 225 233 237 237 238 241 243 244 246 251 258 267 270 270 268 262 254 245 239 231 225 226	0 8 21 32 33	-15948 -14084 -10648 -6360 -5816	-7820 -8376 -7316 -4900 -4496	5700 5376 7100 8728 9196
2279	127	460	5	15	322	3	96	0	0	0	227 223 219 218 213 201 187 178 177 176 170 154 139 134 143 158 172 185 192 186 178 175 177 183 178 163 156 160 151 119 75 35 10 -5 -21 -44 -64 -73 -72 -68 -60 -42 -19 1 8 13 30 57 99 160	25 10 -8 -18 -21	-5248 -5472 -11060 -17568 -13852	-4816 -4580 -10020 -7588 -11760	9276 8904 8828 5624 6408
2280	127	460	5	15	322	3	96	0	0	0	238 318 362 338 241 98 -53 -195 -301 -358 -354 -284 -155 31 127 77 30 8 8 49 79 65 48 64 84 73 51 50 61 60 48 43 43 38 24 14 17 19 18 22 32 43 52 58 61 66 77 91 98 91	-18 -13 -11 -19 -33	-12940 -8736 -7104 -6392 -5800	-9332 -5556 -4936 -4012 -3468	5484 7764 8228 9088 9076
2281	127	468	5	15	322	3	96	0	0	1	71 45 22 3 -12 -17 0 33 67 83 75 53 30 9 -14 -35 -54 -75 -99 -125 -153 -179 -202 -217 -223 -218 -200 -182 -171 -162 -149 -130 -106 -83 -66 -54 -41 -22 -8 -9 -20 -35 -53 -70 -89 -112 -135 -153 -163 -168	-52 -71 -82 -87 -84	-5712 -20084 -12808 -15360 -13892	-3264 -9092 -11940 -8216 -8208	8904 6944 7412 5980 6040
2282	127	468	5	15	322	3	96	0	0	0	-171 -171 -179 -191 -198 -196 -192 -188 -181 -177 -174 -172 -180 -183 -165 -126 -68 9 88 106 11 -190 -440 -686 -907 -1074 -1168 -1181 -1092 -917 -717 -523 -350 -220 -146 -113 -95 -81 -71 -73 -87 -95 -88 -76 -67 -64 -60 -62 -87 -121	-76 -68 -67 -71 -80	-8560 -6448 -5948 -5500 -5624	-6672 -5488 -4264 -4652 -4732	8596 8596 9460 9180 8064
2283	127	460	5	15	322	3	96	0	0	1	-146 -171 -194 -204 -204 -192 -160 -123 -107 -124 -158 -189 -207 -215 -219 -219 -214 -199 -171 -136 -105 -85 -69 -56 -52 -59 -68 -76 -85 -100 -121 -143 -161 -174 -175 -167 -158 -147 -145 -161 -189 -211 -221 -237 -263 -286 -303 -314 -329 -355	-89 -91 -88 -79 -69	-11348 -15996 -13692 -11288 -9380	-9192 -8256 -12012 -7200 -5804	8340 6752 6696 6728 7452
2284	127	460	5	15	322	3	96	0	0	0	-387 -414 -427 -444 -478 -523 -571 -619 -664 -716 -773 -820 -852 -882 -914 -946 -973 -993 -1006 -1023 -1043 -1060 -1074 -1083 -1089 -1094 -1100 -1106 -1108 -1103 -1073 -1000 -906 -868 -948 -1148 -1415 -1671 -1875 -2026 -2120 -2152 -2104 -1969 -1785 -1589 -1410 -1282 -1215 -1195	-63 -67 -77 -91 -103	-7404 -6324 -5404 -6588 -17360	-4776 -3972 -3744 -3800 -8168	8016 8672 9156 8768 8032
2285	127	460	5	15	322	3	96	0	0	1	-1200 -1201 -1185 -1161 -1133 -1101 -1067 -1036 -1010 -993 -978 -963 -948 -929 -915 -904 -890 -880 -869 -854 -837 -819 -801 -779 -762 -747 -726 -710 -697 -681 -663 -644 -626 -609 -600 -596 -593 -593 -594 -597 -606 -626 -651 -667 -682 -700 -719 -739 -759 -774	-107 -102 -88 -68 -51	-13972 -15524 -10836 -8428 -6652	-11700 -7780 -7280 -6492 -5604	7980 6140 7384 8136 8492
2286	129	460	5	15	322	3	96	0	0	0	-782 -792 -801 -803 -804 -809 -819 -832 -839 -831 -818 -808 -809 -817 -817 -805 -792 -785 -787 -797 -807 -818 -830 -840 -855 -875 -893 -909 -918 -921 -925 -930 -936 -943 -953 -967 -979 -987 -993 -998 -1002 -999 -982 -943 -879 -781 -655 -552 -529 -602	-41 -38 -41 -42 -36	-5628 -5560 -6224 -13736 -16964	-4336 -4840 -4956 -10996 -9304	9136 9092 8952 7872 6440
2287	129	460	5	15	322	3	96	0	0	0	-735 -865 -973 -1060 -1117 -1148 -1137 -1069 -960 -841 -734 -654 -602 -572 -555 -532 -502 -477 -462 -454 -452 -452 -449 -439 -433 -438 -447 -449 -445 -439 -438 -448 -459 -463 -469 -479 -486 -490 -491 -486 -481 -485 -492 -498 -501 -506 -518 -533 -542 -545	-22 -3 16 25 23	-13992 -10932 -7220 -6164 -5708	-12004 -6996 -4052 -3848 -3520	6152 7632 8288 8996 9048
2288	129	464	5	15	322	3	96	0	0	1	-544 -544 -549 -559 -569 -575 -583 -594 -613 -638 -656 -660 -657 -654 -657 -666 -676 -689 -702 -712 -718 -718 -718 -723 -730 -732 -728 -723 -721 -719 -709 -696 -675 -657 -653 -656 -662 -668 -664 -657 -657 -661 -664 -663 -655 -643 -623 -577 -572 -625	13 -3 -15 -21 -20	-6680 -20696 -14896 -13996 -10748	-4672 -9304 -11040 -8400 -6904	8232 6372 7080 4804 7216
2289	129	464	5	15	322	3	96	0	0	0	-671 -657 -621 -600 -607 -617 -597 -555 -515 -468 -399 -319 -272 -297 -411 -585 -757 -898 -1005 -1080 -1136 -1161 -1123 -1020 -879 -731 -601 -512 -468 -453 -444 -429 -413 -400 -389 -377 -372 -373 -369 -359 -349 -342 -341 -343 -338 -326 -311 -297 -287 -283	-12 -4 -2 -6 -16	-8088 -6508 -5584 -5716 -6372	-6544 -5072 -4676 -4548 -5144	7960 8624 9092 8852 8788
2290	129	456	5	15	322	3	96	0	0	1	-279 -275 -280 -280 -262 -230 -198 -182 -186 -204 -221 -234 -244 -257 -269 -274 -279 -284 -286 -280 -271 -262 -253 -246 -239 -235 -235 -237 -237 -233 -228 -227 -217 -199 -183 -169 -158 -151 -139 -118 -100 -87 -68 -55 -59 -66 -65 -61 -51 -40	-28 -33 -30 -22 -11	-18516 -14860 -12572 -10088 -8196	-14340 -10100 -8612 -5924 -5320	7408 5896 5796 8132 7768
2291	129	456	5	15	322	3	96	0	0	0	-45 -61 -71 -74 -82 -98 -117 -130 -140 -143 -142 -143 -148 -154 -157 -157 -153 -150 -154 -166 -175 -163 -127 -86 -33 47 115 117 14 -192 -437 -656 -823 -932 -982 -959 -859 -707 -541 -384 -261 -177 -128 -109 -103 -94 -85 -83 -83 -79	-2 -2 -9 -21 -33	-7024 -6172 -5672 -6700 -21288	-4336 -3060 -3304 -4548 -9484	8276 9204 8812 8412 5624
2292	129	456	5	15	322	3	96	0	0	1	-74 -74 -77 -78 -78 -75 -73 -73 -66 -56 -50 -42 -32 -20 -1 22 42 54 62 73 86 95 104 104 93 83 74 58 32 2 -24 -39 -45 -47 -60 -83 -101 -113 -122 -127 -133 -147 -163 -174 -180 -175 -155 -147 -174 -201	-37 -35 -24 -9 4	-15192 -13604 -10236 -7840 -6500	-9808 -8056 -7252 -6324 -5112	6384 5928 7280 8448 8552
2293	129	456	5	15	322	3	96	0	0	0	-217 -226 -214 -190 -172 -161 -145 -129 -124 -122 -112 -98 -92 -99 -113 -127 -137 -137 -131 -126 -134 -159 -185 -204 -210 -198 -179 -173 -177 -184 -189 -191 -195 -205 -217 -224 -216 -193 -161 -119 -54 7 8 -82 -250 -440 -596 -706 -763 -775	8 5 -4 -15 -18	-5460 -5432 -5964 -15392 -14248	-4800 -4580 -4960 -11892 -11624	9216 9112 8332 8324 6424
2294	129	456	5	15	322	3	96	0	0	0	-757 -695 -594 -474 -352 -247 -177 -147 -141 -138 -127 -105 -81 -61 -42 -28 -20 6 29 15 4 11 22 42 60 61 62 78 96 105 110 115 121 123 118 119 131 137 125 113 110 109 107 104 87 65 57 58 52 41	-14 -6 4 11 10	-12704 -10756 -8380 -7024 -5924	-9000 -6116 -5664 -4804 -3220	5756 7304 8060 8452 8976
2295	129	460	5	15	322	3	96	0	0	1	28 16 0 -22 -42 -65 -84 -97 -112 -131 -154 -182 -216 -247 -273 -293 -305 -308 -300 -277 -251 -237 -237 -243 -244 -235 -224 -219 -223 -238 -259 -283 -302 -317 -332 -345 -352 -352 -343 -332 -322 -307 -287 -263 -234 -205 -179 -161 -150 -139	5 -3 -7 -4 5	-5524 -6652 -19364 -16336 -13632	-3504 -4492 -8772 -8028 -8592	8628 8432 6148 5772 5780
2296	130	460	5	15	322	3	96	0	0	0	-136 -128 -97 -47 23 121 222 272 243 127 -40 -193 -321 -426 -500 -546 -540 -456 -315 -148 6 122 196 237 260 284 311 338 367 404 437 457 475 498 520 539 557 575 601 636 670 696 715 734 759 786 815 842 870 901	21 39 53 60 61	-10156 -8088 -6088 -5344 -5736	-7544 -6508 -4680 -4744 -4732	7176 8240 9052 9184 8932
2297	130	464	5	15	322	3	96	0	0	1	930 960 986 1001 1013 1035 1061 1078 1093 1105 1109 1113 1101 1071 1048 1042 1044 1046 1042 1029 1017 1020 1036 1052 1066 1085 1104 1124 1146 1168 1183 1186 1186 1192 1202 1209 1213 1222 1234 1253 1273 1281 1274 1270 1277 1289 1302 1318 1309 1265	57 55 60 72 87	-5992 -13868 -14572 -12848 -10304	-4772 -10892 -12136 -9320 -6524	8360 8944 6660 5724 7912
2298	130	464	5	15	322	3	96	0	0	0	1228 1201 1183 1177 1175 1163 1148 1144 1142 1134 1129 1133 1137 1129 1117 1113 1117 1126 1138 1161 1214 1292 1332 1277 1119 889 652 438 258 140 91 127 248 431 655 881 1048 1129 1143 1145 1173 1200 1193 1154 1114 1105 1121 1141 1153 1156	101 109 107 99 87	-8136 -6060 -5976 -5748 -6532	-5168 -3868 -3044 -3052 -4252	8896 9204 9376 9172 8304
2299	130	460	5	15	322	3	96	0	0	1	1163 1164 1149 1129 1119 1122 1127 1128 1127 1127 1133 1147 1164 1182 1197 1209 1215 1214 1211 1214 1218 1220 1220 1212 1195 1174 1147 1114 1082 1053 1024 997 970 942 919 898 877 862 850 834 813 791 772 758 756 756 748 739 743 751	78 73 72 75 78	-13228 -16744 -14176 -10496 -5980	-12972 -8324 -8172 -7280 -5028	7428 6488 5960 7292 8632
2300	130	460	5	15	322	3	96	0	0	0	762 769 768 768 780 792 791 777 752 726 708 697 685 673 661 652 644 637 632 624 617 615 620 623 620 606 586 564 547 543 558 591 638 696 777 850 827 658 375 56 -217 -412 -538 -604 -595 -493 -313 -101 106 273	74 64 50 33 21	-5668 -5520 -5116 -5168 -13748	-4296 -4796 -4752 -4528 -12308	8820 9156 9164 8072 7096
2301	130	452	5	15	322	3	96	0	0	1	379 436 466 490 522 561 587 600 612 619 620 617 617 620 621 620 614 602 592 587 591 601 612 629 650 664 665 660 660 672 689 696 728 768 714 620 562 529 528 536 520 477 446 439 424 390 364 352 332 293	21 27 38 48 51	-13972 -13780 -11488 -6844 -6484	-13384 -9980 -6792 -4592 -4116	6992 5116 7368 8100 8972
2302	130	452	5	15	322	3	96	0	0	0	251 217 179 147 128 120 116 104 84 66 59 49 28 13 13 23 40 56 61 54 37 13 -15 -40 -61 -86 -113 -134 -152 -168 -182 -196 -209 -218 -226 -234 -240 -233 -209 -176 -129 -77 -31 18 75 138 212 301 383 427	45 34 20 12 12	-5424 -5668 -14152 -16068 -16280	-2936 -3228 -6488 -13216 -8800	9476 8816 8068 8660 5852
2303	130	452	5	15	322	3	96	0	0	0	400 311 199 96 37 14 -66 -168 -189 -137 -39 70 142 175 201 229 243 238 233 245 257 250 241 243 252 259 263 268 274 278 280 282 286 289 289 288 291 300 309 316 321 318 309 305 305 304 304 304 299 294	19 30 41 46 44	-13876 -10180 -5788 -5400 -4848	-8524 -8008 -4792 -4652 -4804	4668 7976 8448 8804 9520
2304	130	460	5	15	322	3	96	0	0	1	291 286 278 271 265 256 243 227 213 207 204 200 194 184 169 154 139 123 111 106 104 103 101 99 108 133 165 194 219 237 253 270 286 294 295 290 283 274 264 253 235 219 217 222 228 228 222 214 213 218	37 28 27 33 42	-5624 -15100 -14408 -14160 -12208	-4304 -11392 -13180 -11544 -8060	9288 8040 7720 6764 7024
2305	130	460	5	15	322	3	96	0	0	0	228 253 312 327 268 206 163 164 214 262 281 306 366 416 387 255 55 -141 -305 -435 -535 -607 -631 -590 -497 -379 -259 -160 -93 -58 -49 -53 -56 -52 -52 -64 -89 -121 -154 -181 -181 -155 -121 -96 -83 -81 -86 -94 -103 -111	48 48 37 19 -1	-7404 -6584 -5892 -5324 -5512	-4444 -4112 -3720 -2964 -3592	8668 8684 8896 9392 8564
2306	132	452	5	15	322	3	96	0	0	1	-118 -122 -120 -119 -121 -124 -126 -123 -116 -104 -82 -52 -19 18 53 86 113 129 141 153 164 174 178 171 161 160 171 209 243 193 113 91 109 154 195 187 156 159 195 228 242 253 272 289 295 296 298 295 286 267	-16 -22 -19 -10 -1	-15824 -16552 -15960 -11768 -6352	-7216 -8228 -7620 -8104 -5192	6968 6024 6284 7220 8580
2307	132	452	5	15	322	3	96	0	0	0	247 232 214 190 171 158 151 142 126 109 95 83 71 54 33 16 12 16 22 30 46 73 113 174 243 267 201 37 -183 -393 -560 -680 -757 -793 -766 -670 -537 -400 -277 -188 -144 -137 -150 -171 -185 -192 -199 -198 -179 -135	2 -4 -17 -35 -46	-5820 -5304 -5012 -8100 -12248	-4468 -4516 -4580 -6820 -13468	8980 8924 9180 9156 6752
2308	132	448	5	15	322	3	96	0	0	1	-77 -15 44 95 139 178 212 237 254 269 284 292 298 311 326 339 356 372 387 401 410 417 431 448 460 459 445 436 418 378 338 302 274 255 228 188 149 115 83 52 24 5 -6 -24 -54 -94 -129 -154 -166 -161	-49 -44 -37 -30 -32	-14072 -13216 -11676 -6764 -6228	-13464 -11092 -6120 -4524 -4224	6632 5916 7468 8440 8820
2309	132	448	5	15	322	3	96	0	0	0	-151 -151 -154 -154 -152 -139 -124 -120 -118 -117 -130 -165 -211 -251 -279 -292 -295 -299 -310 -321 -327 -330 -330 -326 -323 -328 -336 -345 -355 -362 -365 -362 -350 -319 -257 -141 7 108 111 7 -157 -303 -397 -449 -468 -453 -397 -287 -143 -8	-41 -56 -69 -74 -72	-5952 -5176 -11456 -16408 -16636	-3284 -2844 -6064 -12916 -7936	9000 8984 8008 7048 5824
2310	132	456	5	15	322	3	96	0	0	1	90 151 181 200 228 261 291 319 304 250 206 189 208 250 288 303 306 313 319 315 307 305 311 317 319 326 339 351 361 373 383 392 401 411 416 416 414 409 401 386 373 367 365 358 347 335 323 312 294 263	-63 -51 -40 -38 -41	-14116 -8200 -5768 -5692 -5272	-8340 -6196 -4888 -4228 -4772	6236 8772 8528 8924 9276
2311	132	456	5	15	322	3	96	0	0	0	225 191 169 142 105 77 72 87 98 86 69 63 61 53 34 7 -10 -6 3 4 0 -1 3 9 18 44 81 108 127 139 146 152 157 164 174 180 183 187 191 195 202 208 213 220 235 264 310 372 461 601	-49 -56 -53 -44 -30	-5856 -12696 -14444 -13228 -8120	-4720 -10436 -12228 -9484 -5020	8632 8048 6492 6848 8708
2312	132	456	5	15	322	3	96	0	0	0	729 696 542 335 92 -114 -286 -459 -606 -663 -610 -482 -314 -134 15 106 141 140 138 147 153 154 149 130 100 77 62 53 39 1 -47 -74 -73 -63 -53 -39 -18 13 50 74 74 56 38 12 -32 -69 -72 -43 0 44	-15 -5 -2 -5 -13	-6240 -5952 -6016 -6712 -15636	-4552 -3924 -3104 -4560 -8764	8836 8976 9456 8216 6904
2313	132	444	5	15	322	3	96	0	0	1	86 113 117 99 69 39 27 28 24 15 15 28 49 69 90 109 123 136 148 153 156 160 161 168 179 189 196 207 223 237 247 251 244 232 234 239 240 242 246 249 257 261 252 235 224 220 219 215 206 193	-17 -11 1 18 33	-17392 -16876 -10872 -8540 -5652	-9756 -6876 -6932 -5804 -4980	6836 5776 7084 8388 9208
2314	132	444	5	15	322	3	96	0	0	0	173 168 171 177 171 155 133 123 142 181 230 286 318 288 183 34 -99 -198 -267 -317 -364 -394 -379 -318 -231 -139 -66 -25 -21 -38 -53 -54 -67 -95 -98 -82 -73 -76 -86 -92 -84 -62 -42 -42 -70 -121 -187 -254 -287 -282	39 34 20 1 -14	-4748 -5024 -6584 -11196 -14732	-4476 -3920 -4952 -11080 -11384	9248 9116 8228 8656 7724
2315	132	452	5	15	322	3	96	0	0	1	-257 -228 -196 -153 -97 -36 18 54 77 89 88 90 109 135 154 163 155 120 80 60 70 116 146 134 97 44 11 2 -3 -20 -55 -96 -129 -159 -183 -202 -231 -273 -315 -343 -346 -339 -343 -360 -390 -435 -474 -494 -510 -532	-18 -15 -12 -13 -21	-16084 -11020 -8824 -6300 -5632	-10260 -6364 -5216 -4844 -4088	5500 6516 7984 8536 8884
2316	132	452	5	15	322	3	96	0	0	0	-558 -585 -607 -624 -638 -659 -697 -744 -774 -783 -776 -744 -701 -679 -674 -681 -699 -715 -716 -706 -689 -652 -596 -561 -585 -683 -831 -966 -1060 -1120 -1166 -1202 -1214 -1185 -1113 -1020 -932 -857 -794 -735 -669 -604 -544 -491 -447 -408 -360 -307 -263 -223	-39 -63 -85 -92 -83	-5732 -6548 -15340 -16916 -16268	-3236 -4280 -8712 -9404 -8236	9280 8572 7228 6132 6304
2317	132	448	5	15	322	3	96	0	0	1	-184 -152 -123 -91 -55 -22 3 24 50 82 117 169 220 220 200 194 195 211 237 245 237 239 252 256 240 218 196 171 144 121 109 106 101 78 36 -10 -48 -80 -110 -139 -169 -193 -203 -207 -209 -212 -221 -239 -254 -248	-60 -29 1 20 26	-10560 -7324 -6092 -5636 -5428	-6928 -6208 -5300 -4656 -4272	7516 8064 8580 9048 8744
2318	132	448	5	15	322	3	96	0	0	0	-238 -251 -262 -232 -178 -151 -190 -283 -374 -415 -417 -423 -448 -478 -492 -498 -520 -553 -579 -593 -602 -599 -590 -587 -587 -583 -569 -535 -483 -423 -358 -281 -186 -72 43 120 119 18 -142 -290 -412 -516 -592 -624 -596 -518 -401 -292 -262 -284	19 8 1 1 4	-7044 -14144 -18112 -11712 -10164	-5724 -11576 -10316 -8620 -6120	8304 7012 5780 6560 7228
2319	132	448	5	15	322	3	96	0	0	1	-305 -320 -324 -318 -318 -339 -370 -394 -411 -424 -434 -445 -465 -496 -524 -540 -550 -567 -589 -609 -624 -645 -674 -691 -703 -702 -680 -663 -660 -660 -665 -671 -682 -710 -748 -777 -782 -763 -733 -702 -682 -665 -634 -609 -617 -639 -660 -703 -754 -794	6 3 -11 -32 -55	-8448 -6316 -5260 -5260 -8344	-5056 -4952 -3668 -3764 -5260	7808 8768 9328 8564 7528
2320	132	448	5	15	322	3	96	0	0	0	-842 -886 -894 -877 -873 -891 -920 -943 -945 -932 -915 -893 -890 -932 -986 -1023 -1027 -987 -949 -955 -979 -992 -984 -959 -936 -931 -930 -918 -907 -907 -907 -897 -883 -874 -873 -872 -859 -837 -823 -819 -811 -786 -756 -728 -701 -683 -643 -559 -476 -464	-74 -83 -87 -90 -94	-16928 -15484 -12132 -9556 -7764	-7876 -10612 -7944 -6188 -5056	6568 6040 6276 7812 8460
2321	132	448	5	15	322	3	96	0	0	0	-547 -707 -896 -1076 -1232 -1360 -1457 -1491 -1421 -1247 -1033 -846 -694 -565 -501 -502 -515 -532 -545 -536 -518 -511 -510 -495 -466 -456 -468 -465 -435 -396 -373 -364 -386 -435 -453 -445 -438 -419 -388 -367 -359 -358 -370 -386 -391 -398 -418 -441 -450 -442	-103 -117 -131 -141 -142	-6244 -5368 -4900 -6908 -17692	-4256 -4776 -4864 -5704 -13264	8648 8944 8688 7636 7800
2322	132	448	5	15	322	3	96	0	0	1	-440 -469 -519 -569 -606 -616 -616 -626 -639 -651 -670 -688 -687 -678 -673 -674 -682 -684 -666 -626 -583 -547 -508 -484 -479 -472 -453 -418 -376 -346 -334 -332 -340 -358 -378 -388 -387 -382 -383 -397 -419 -433 -434 -430 -423 -417 -423 -433 -436 -435	-129 -109 -83 -56 -33	-13992 -12292 -9232 -7624 -7128	-11372 -6616 -5688 -4968 -3996	5968 6888 7528 7972 8512
2323	132	448	5	15	322	3	96	0	0	0	-427 -415 -403 -389 -369 -340 -307 -258 -174 -78 -42 -117 -290 -489 -648 -758 -834 -897 -947 -942 -861 -735 -596 -464 -363 -309 -292 -287 -282 -277 -281 -290 -299 -306 -311 -317 -324 -331 -342 -358 -372 -377 -370 -355 -331 -305 -281 -267 -271 -282	-17 -5 3 12 25	-6048 -6124 -9036 -16936 -14352	-3816 -4128 -4988 -6652 -8448	9248 8184 7960 6000 5980
2324	132	448	5	15	322	3	96	0	0	1	-288 -283 -264 -239 -212 -185 -166 -157 -157 -171 -186 -193 -197 -191 -172 -153 -142 -144 -175 -222 -254 -270 -268 -256 -243 -233 -235 -237 -228 -222 -215 -199 -180 -162 -141 -118 -102 -97 -99 -99 -105 -121 -138 -144 -132 -94 -46 -27 -46 -91	41 55 66 70 67	-11728 -9244 -7196 -5040 -4896	-7404 -6244 -4776 -4352 -4152	6736 8072 8444 9432 9392
2325	132	448	5	15	322	3	96	0	0	0	-150 -194 -192 -161 -138 -150 -189 -227 -241 -226 -211 -217 -228 -228 -216 -198 -177 -147 -95 -26 33 52 6 -120 -297 -470 -590 -637 -636 -601 -541 -470 -401 -334 -259 -185 -126 -87 -68 -58 -40 -11 17 37 61 80 72 62 68 81	59 52 55 64 75	-5608 -13240 -18680 -12380 -10304	-4804 -10660 -9520 -9256 -6576	8400 8716 6412 6324 8312
2326	134	444	5	15	322	3	96	0	0	1	97 118 129 141 161 173 179 184 188 196 204 205 202 198 192 185 179 178 173 157 136 120 114 115 118 117 112 105 99 95 91 87 82 77 74 75 76 73 70 67 67 73 81 86 94 106 116 118 116 117	84 87 79 64 46	-8200 -6944 -5812 -5676 -6400	-5208 -4412 -3092 -2924 -4068	8356 8580 9296 8880 7684
2327	134	444	5	15	322	3	96	0	0	0	122 127 125 113 91 66 50 47 52 57 57 52 52 65 77 86 94 100 108 122 137 147 153 157 159 164 182 224 288 371 467 560 610 585 479 323 170 52 -30 -89 -137 -165 -142 -63 52 167 258 316 346 361	35 34 45 63 80	-21884 -15456 -12140 -9916 -7288	-10432 -7892 -7860 -6960 -5964	5196 4964 6736 7964 8196
2328	134	448	5	15	322	3	96	0	0	1	370 375 375 375 377 380 384 387 392 395 390 380 373 372 378 386 389 388 391 399 412 424 430 436 447 456 448 425 398 386 403 447 487 489 452 400 360 343 335 321 297 269 247 234 221 216 221 239 267 295	88 85 70 49 34	-6028 -5136 -5788 -6620 -18844	-4868 -4712 -4920 -5332 -13808	8760 9172 8596 8376 7728
2329	134	448	5	15	322	3	96	0	0	0	325 365 402 425 441 456 464 467 473 481 488 501 517 529 535 533 524 516 511 513 514 504 482 461 448 436 421 404 386 371 363 357 349 342 335 321 305 293 293 308 337 385 465 550 553 438 226 -32 -269 -465	27 25 27 29 24	-13844 -12396 -10176 -8216 -6040	-11368 -7732 -5864 -5360 -3604	6488 6528 7720 7980 9400
2330	134	448	5	15	322	3	96	0	0	0	-615 -709 -727 -637 -455 -238 -23 167 306 387 418 427 431 436 446 460 475 486 493 494 491 492 497 504 512 518 521 524 526 525 529 542 564 597 635 672 706 736 764 791 813 823 822 817 807 797 788 779 766 749	14 3 -7 -10 -8	-5416 -5704 -7008 -17276 -15440	-3288 -3656 -4580 -8848 -7832	9192 8228 8088 9144 6596
2331	134	440	5	15	322	3	96	0	0	1	731 710 691 678 665 651 637 623 611 600 584 573 578 594 608 613 612 615 631 653 669 675 684 697 698 690 678 668 662 658 650 640 632 625 612 595 578 569 568 577 594 605 606 597 591 601 619 635 643 645	1 12 20 21 18	-11592 -9796 -7320 -5292 -5464	-7652 -7500 -5776 -4384 -4848	7092 8052 8028 8984 9548
2332	134	440	5	15	322	3	96	0	0	0	652 674 715 777 837 838 751 595 417 254 113 -4 -86 -124 -95 4 143 295 433 527 574 591 613 655 707 761 812 851 868 868 874 892 914 931 936 933 933 946 965 979 991 1004 1011 1014 1020 1033 1048 1062 1077 1092	11 6 11 24 41	-5312 -6936 -13596 -13176 -11776	-4676 -5792 -13712 -11484 -6696	8828 8668 7072 6124 7024
2333	134	444	5	15	322	3	96	0	0	1	1104 1101 1091 1073 1032 993 974 958 944 938 926 901 872 847 825 803 785 771 757 745 737 728 717 707 703 702 702 701 704 709 708 706 712 724 735 739 734 722 710 697 679 659 640 624 611 599 585 571 559 552	59 73 77 76 70	-9380 -7072 -6140 -5616 -5932	-5468 -4856 -3164 -2868 -4224	11572 8204 9344 9248 8004
2334	134	444	5	15	322	3	96	0	0	0	544 534 523 510 498 485 473 462 455 458 478 520 583 674 769 818 790 679 519 373 269 201 163 152 168 217 292 370 433 475 500 507 501 496 494 489 484 487 495 499 499 502 507 514 518 520 522 528 537 543	66 68 74 83 92	-7836 -17260 -14660 -11640 -9636	-5384 -7556 -8524 -7700 -6600	7884 6132 6136 6816 8408
2335	134	448	5	15	322	3	96	0	0	1	546 548 550 557 564 568 574 583 592 600 606 606 599 585 567 548 531 520 512 507 505 502 497 490 478 462 441 423 410 399 390 383 372 359 350 343 343 350 361 370 372 370 369 369 373 377 371 356 339 326	94 89 78 63 55	-5592 -4996 -4968 -14764 -14100	-4632 -4584 -4352 -12920 -12528	8872 9064 9492 6868 6288
2336	135	448	5	15	322	3	96	0	0	0	322 328 334 334 330 323 310 299 297 301 305 304 294 287 291 297 299 297 293 289 293 313 352 401 453 517 575 592 537 403 243 111 17 -46 -85 -99 -75 -5 80 153 211 249 259 250 242 242 240 232 222 214	56 62 68 72 68	-14104 -11648 -9128 -6348 -5600	-10760 -6896 -5392 -3872 -2968	5736 7128 8252 9032 9164
2337	135	444	5	15	322	3	96	0	0	1	209 207 206 208 211 213 213 212 213 220 225 224 225 229 231 231 232 235 239 244 250 253 249 240 232 224 212 199 189 182 174 160 135 104 77 62 60 63 61 59 58 54 50 50 54 62 74 85 94 99	57 43 31 26 28	-5428 -5988 -19016 -16704 -13792	-2980 -4088 -14228 -8580 -8288	8864 8372 7860 5580 6108
2338	135	444	5	15	322	3	96	0	0	0	94 81 70 68 76 92 105 109 108 104 96 92 94 100 108 113 114 110 106 102 94 89 88 91 91 91 93 96 100 107 115 126 139 155 175 208 262 317 331 283 181 69 -20 -86 -136 -165 -174 -160 -114 -45	34 38 38 30 16	-10252 -5800 -5440 -4776 -5112	-7616 -4588 -4496 -4504 -4288	7756 8948 8852 9556 8980
2339	135	444	5	15	322	3	96	0	0	1	37 65 119 192 261 288 255 200 151 117 97 76 58 52 48 36 17 2 -2 -2 0 9 23 39 60 86 114 135 138 136 143 152 165 183 195 197 199 213 251 333 357 240 118 74 80 142 206 202 161 146	0 -11 -13 -9 -4	-6628 -14652 -14096 -11172 -9296	-5424 -12288 -11708 -6752 -5908	8372 6600 6380 -6164 8464
2340	135	444	5	15	322	3	96	0	0	0	151 146 131 130 141 142 141 154 173 179 168 155 155 169 188 201 206 197 174 151 139 134 134 135 129 114 97 91 101 116 124 121 115 111 109 107 104 97 84 71 69 81 105 145 202 272 326 325 241 87	0 -3 -13 -26 -37	-6148 -6072 -5676 -5448 -18480	-4464 -3752 -2648 -3748 -6192	8688 8960 9452 8544 9520
2341	135	444	5	15	322	3	96	0	0	0	-81 -219 -322 -390 -423 -419 -370 -283 -193 -124 -76 -46 -29 -19 -8 6 13 13 10 12 16 17 17 18 24 38 55 65 72 131 253 229 68 -43 -83 -22 97 165 163 162 200 236 231 217 234 263 272 262 253 250	-40 -36 -25 -11 0	-16864 -15480 -11304 -8436 -5064	-8696 -8176 -7576 -6752 -4180	5908 6644 7788 9056 8980
