17550	0	332	0	0	0	2	0	0	0	0	-150 -99 -19 79 152 118 -87 -448 -855 -1149 -1211 -1042 -752 -466 -243 -93 5 70 108 126 137 149 161 168 171 176 187 201 220 249 285 330 386 449 514 580 639 684 712 723 715 690 649 595 529 458 387 314 242 175	-312 -333 -346 -337 -302	-9460 -9988 -9272 -8772 -8772	-5388 -5524 -5896 -5784 -5852	8592 8160 8012 7596 7500
17551	0	336	0	0	0	2	0	0	0	1	117 72 40 18 2 -8 -14 -17 -15 -10 -1 8 12 8 -3 -18 -32 -48 -63 -77 -90 -100 -108 -115 -123 -128 -130 -130 -133 -137 -142 -147 -149 -143 -121 -75 -4 82 144 106 -76 -393 -792 -1148 -1337 -1320 -1127 -844 -569 -357	-244 -189 -159 -136 -93	-8564 -8508 -8544 -8584 -8532	-5228 -5176 -5316 -5600 -5844	7448 7388 7240 7332 7436
17552	0	336	0	0	0	2	92	0	0	1	-210 -113 -48 -6 21 40 57 72 87 103 119 137 157 181 212 254 305 365 430 498 563 617 656 678 681 664 627 574 506 427 342 256 172 95 29 -24 -62 -88 -109 -128 -146 -158 -163 -166 -172 -182 -195 -207 -220 -234	-5 132 304 495 676	-9680 -9664 -10084 -10456 -9648	-6228 -5784 -5936 -6420 -6300	7324 7060 7048 7132 7968
17553	0	336	26	0	0	2	92	0	0	0	-264 -275 -285 -294 -301 -303 -305 -304 -304 -303 -299 -292 -285 -280 -274 -265 -248 -210 -145 -56 29 36 -100 -381 -761 -1137 -1372 -1395 -1228 -946 -651 -413 -246 -132 -49 11 53 90 127 161 190 217 245 275 306 339 375 418 472 531	822 934 1011 1014 915	-8948 -8964 -8716 -8640 -8628	-6492 -6688 -6280 -5932 -5620	8312 8096 8028 8352 7688
17554	0	332	26	0	0	2	92	0	0	1	594 661 726 779 815 833 832 814 781 734 676 608 534 458 384 315 251 194 146 107 77 54 32 15 2 -4 -5 -5 -9 -20 -38 -57 -74 -90 -103 -116 -132 -149 -163 -174 -184 -191 -196 -200 -205 -207 -208 -206 -199 -183	741 522 286 77 -55	-8392 -8208 -8272 -8788 -8928	-5684 -6032 -6216 -6436 -6264	7588 7740 7776 7484 7384
17555	0	332	26	0	0	2	92	0	0	0	-156 -111 -46 33 108 124 18 -209 -518 -837 -1065 -1135 -1058 -875 -646 -436 -276 -161 -79 -21 19 46 64 79 91 101 113 127 142 156 173 194 224 262 307 353 398 438 469 489 491 478 449 409 359 300 233 163 94 30	-113 -120 -83 12 166	-8872 -9812 -10504 -11084 -10700	-6004 -6160 -6408 -6008 -5544	7420 7368 7136 7812 8176
17556	181	340	26	0	0	2	92	0	0	1	-26 -71 -105 -128 -142 -150 -152 -151 -145 -135 -121 -105 -91 -82 -83 -85 -88 -91 -93 -93 -94 -96 -98 -102 -109 -113 -114 -113 -110 -107 -105 -104 -103 -98 -85 -54 2 77 150 184 128 -33 -275 -556 -803 -941 -941 -825 -636 -435	335 475 560 569 502	-9780 -9276 -9220 -8864 -8544	-4868 -5024 -5460 -5616 -5376	8360 8076 7972 7840 8588
17557	181	336	26	16	0	2	92	0	0	1	-267 -140 -46 22 68 101 126 145 162 176 190 206 223 243 267 295 328 369 415 468 524 578 626 661 680 681 666 637 596 547 490 429 365 302 241 185 137 97 65 40 21 8 -2 -8 -11 -10 -9 -11 -19 -32	405 321 264 234 229	-8092 -8296 -8596 -8660 -9804	-5168 -5312 -5436 -5512 -5596	7684 7548 7468 7444 7292
17558	181	336	26	16	302	2	92	0	0	0	-48 -63 -77 -89 -98 -107 -116 -125 -133 -140 -144 -145 -145 -145 -144 -140 -134 -126 -111 -81 -28 46 119 153 98 -68 -317 -606 -868 -1029 -1050 -942 -742 -514 -319 -177 -81 -18 22 45 57 65 73 81 88 95 102 112 126 146	246 277 306 326 344	-9408 -9524 -10176 -10664 -10104	-5892 -5708 -5832 -6564 -6492	7456 7520 7448 7344 8916
17559	181	336	26	16	302	2	92	0	0	1	175 212 256 307 362 419 469 508 531 538 532 512 477 429 371 307 241 176 113 56 6 -34 -66 -91 -109 -120 -122 -117 -113 -111 -113 -116 -121 -128 -140 -155 -168 -177 -183 -186 -187 -187 -187 -183 -175 -165 -151 -136 -122 -105	361 380 417 454 438	-9412 -8936 -8556 -8584 -8768	-6616 -6380 -6280 -5784 -5544	8824 8620 8328 7936 7880
17560	181	336	26	16	302	2	92	0	0	0	-49 1 76 167 245 247 105 -186 -569 -939 -1176 -1208 -1048 -763 -452 -194 -9 109 184 234 266 283 295 310 324 337 350 367 387 410 436 470 512 560 616 674 729 776 809 826 825 807 772 721 658 587 511 434 356 283	328 130 -127 -410 -671	-8428 -8136 -8060 -8820 -9272	-5516 -5772 -6112 -6256 -6256	7836 7668 7896 7584 7536
17561	181	328	26	16	302	2	92	0	0	1	215 157 112 78 55 41 31 21 10 2 2 7 13 19 22 21 16 8 -3 -15 -25 -34 -44 -54 -63 -71 -77 -81 -82 -82 -82 -82 -82 -79 -74 -62 -27 34 116 185 164 -14 -348 -752 -1085 -1220 -1121 -858 -555 -297	-869 -1011 -1118 -1200 -1270	-9200 -9040 -9608 -10536 -11224	-6056 -5968 -6100 -6112 -6136	7484 7704 7480 7604 7904
17562	181	340	26	16	302	2	92	0	0	1	-109 16 98 152 186 207 225 245 265 281 297 317 342 369 399 436 481 534 592 653 712 762 802 829 838 828 801 760 706 641 568 492 415 338 263 195 137 89 53 24 0 -20 -40 -61 -74 -80 -84 -87 -94 -107	-1336 -1382 -1394 -1369 -1290	-10808 -9476 -9520 -9184 -8696	-5816 -5060 -5312 -5572 -5676	8512 7956 8320 8132 7856
17563	181	340	26	16	302	2	92	0	0	0	-121 -136 -154 -175 -195 -211 -224 -234 -241 -245 -246 -246 -245 -243 -241 -238 -236 -233 -227 -211 -176 -118 -39 51 100 27 -186 -502 -858 -1144 -1272 -1229 -1049 -791 -536 -340 -204 -111 -46 2 35 56 73 88 100 109 119 134 151 172	-1142 -934 -691 -441 -199	-8536 -8340 -8308 -8492 -8876	-5700 -5408 -5464 -5612 -5592	7732 7724 7600 7368 7520
17564	181	340	26	16	302	2	92	0	0	1	200 236 279 330 385 443 499 545 577 591 587 570 540 497 445 386 321 253 189 131 78 31 -5 -34 -55 -67 -76 -85 -91 -90 -88 -87 -84 -89 -103 -117 -132 -147 -160 -170 -180 -195 -207 -218 -227 -234 -240 -246 -255 -264	28 231 404 550 683	-9764 -9292 -9212 -9684 -10432	-5700 -5892 -5832 -5960 -6856	7340 7484 7720 7468 7316
17565	181	340	26	16	302	2	92	0	0	0	-273 -283 -293 -294 -282 -252 -201 -139 -81 -63 -141 -327 -591 -878 -1118 -1243 -1234 -1116 -933 -731 -552 -410 -299 -211 -145 -98 -60 -31 -9 5 17 33 48 61 74 91 112 140 172 211 256 300 339 365 375 371 355 329 293 250	832 1001 1148 1288 1437	-10136 -9284 -9184 -8856 -8828	-6444 -5516 -6116 -6324 -5912	8112 9444 8584 8440 8124
17566	181	340	26	16	302	2	92	0	0	1	151 97 44 -6 -51 -85 -109 -123 -131 -135 -136 -134 -131 -125 -115 -103 -93 -90 -93 -99 -104 -105 -105 -105 -109 -112 -111 -110 -110 -111 -111 -108 -104 -99 -94 -89 -82 -68 -43 -3 57 129 191 212 149 -7 -233 -492 -717 -843	1534 1547 1515 1429 1262	-9220 -8672 -8256 -8092 -8496	-5644 -5508 -5604 -5892 -5840	7712 7488 7828 7920 7656
17567	181	340	26	16	302	2	92	0	0	0	-849 -754 -592 -416 -269 -157 -72 -13 28 56 73 85 97 109 119 131 146 164 184 208 237 271 315 366 418 469 516 552 574 578 568 545 511 466 413 354 292 232 172 117 71 35 8 -12 -27 -41 -51 -55 -56 -55	1053 850 676 534 426	-8776 -9128 -9300 -9480 -10208	-5912 -5920 -5864 -6180 -6336	7292 7644 7620 7636 7240
17568	181	340	26	16	303	2	92	0	0	1	-50 -47 -46 -46 -50 -55 -59 -60 -57 -50 -39 -26 -11 10 36 62 84 99 109 117 126 140 158 188 240 317 396 432 365 162 -150 -505 -808 -962 -930 -745 -480 -218 -13 128 220 281 321 345 364 382 400 415 428 442	322 148 -114 -433 -784	-10884 -11088 -9640 -9076 -9108	-6176 -5704 -4764 -4716 -5084	7292 8204 8428 8116 7928
17569	181	332	26	16	303	2	92	0	0	1	458 477 500 528 564 609 661 716 773 823 864 892 904 898 877 842 791 729 659 583 506 431 358 293 237 191 157 131 113 100 86 74 66 62 61 63 62 56 45 30 14 -4 -22 -38 -52 -64 -75 -84 -92 -99	-1125 -1376 -1510 -1554 -1532	-8736 -8300 -8412 -8616 -8464	-5472 -5572 -5192 -5068 -5136	7888 8040 7716 7648 7628
17570	181	332	26	16	303	2	92	0	0	0	-103 -106 -108 -108 -107 -106 -103 -97 -76 -30 45 132 181 113 -114 -474 -881 -1205 -1336 -1254 -1011 -708 -437 -236 -104 -19 40 79 104 121 137 153 169 185 204 229 258 291 331 381 437 497 564 629 687 732 760 768 756 725	-1458 -1343 -1199 -1033 -861	-8884 -9504 -9744 -9696 -10080	-5420 -5712 -5988 -5768 -5884	7544 7968 7480 7496 7432
17571	181	344	26	16	303	2	92	0	0	1	677 614 539 456 367 280 197 121 53 -8 -58 -96 -124 -145 -164 -185 -206 -222 -231 -236 -240 -245 -255 -268 -282 -298 -315 -332 -345 -355 -364 -374 -382 -389 -393 -396 -398 -400 -401 -402 -403 -404 -402 -390 -355 -288 -187 -73 -12 -89	-686 -501 -302 -85 156	-10868 -10332 -9668 -9052 -8476	-6732 -6796 -6708 -6456 -6004	8216 8560 8728 8324 7896
17572	181	344	26	16	303	2	92	0	0	0	-344 -735 -1129 -1369 -1372 -1167 -868 -593 -388 -244 -141 -61 4 50 85 120 154 183 212 244 278 314 351 393 442 498 559 624 689 745 790 817 827 820 796 756 702 638 567 494 419 345 272 201 135 80 38 7 -15 -31	384 533 573 522 407	-8316 -8320 -8144 -7944 -8340	-5648 -5276 -5688 -5828 -5872	7884 7828 7644 7640 7500
17573	181	344	26	16	303	2	92	0	0	1	-62 -71 -73 -73 -71 -69 -72 -82 -94 -108 -123 -139 -153 -166 -182 -195 -204 -213 -219 -222 -224 -225 -225 -222 -217 -213 -203 -181 -142 -79 1 84 125 52 -154 -454 -780 -1033 -1134 -1082 -922 -707 -499 -334 -216 -134 -80 -47 -28 -15	265 155 108 104 129	-8872 -9392 -9440 -9588 -10088	-5984 -6196 -6184 -5916 -6296	7348 7228 7228 7508 7108
17574	181	340	26	16	303	2	92	0	0	1	-4 7 14 17 21 26 33 42 56 75 102 139 184 236 291 342 382 409 424 427 421 403 373 335 293 250 207 167 131 100 77 62 51 45 45 44 43 45 52 65 81 95 101 95 84 71 57 44 32 18	205 323 429 497 520	-10728 -11200 -10072 -9312 -8956	-6168 -5696 -4532 -4596 -4812	7416 7640 8180 8088 8052
17575	181	340	26	16	303	2	92	0	0	0	2 -13 -28 -43 -53 -60 -69 -77 -84 -90 -92 -93 -88 -73 -38 20 85 138 141 54 -120 -357 -616 -829 -933 -917 -800 -624 -443 -298 -188 -104 -41 4 35 58 75 86 96 106 118 132 150 171 192 215 245 282 326 373	489 435 417 450 531	-8756 -8532 -8256 -7924 -8672	-5224 -5540 -5080 -4948 -5048	7868 7824 8292 8136 7700
17576	179	340	26	16	303	2	92	0	0	1	416 450 473 481 473 449 414 372 321 265 203 138 76 15 -40 -85 -120 -145 -160 -169 -176 -179 -180 -180 -176 -168 -158 -148 -143 -143 -147 -154 -162 -169 -174 -178 -180 -181 -183 -187 -191 -192 -189 -185 -181 -178 -174 -167 -154 -129	643 757 848 907 922	-9244 -9272 -9288 -9228 -9404	-5176 -5368 -5612 -5844 -5760	7528 7516 7456 7520 7492
17577	179	340	26	16	303	2	92	0	0	0	-84 -16 60 117 110 -4 -218 -498 -788 -1004 -1079 -1010 -831 -603 -391 -228 -110 -25 35 74 103 129 153 175 193 210 227 247 270 295 323 358 399 446 497 545 586 617 634 635 619 587 542 488 425 355 281 205 132 63	874 755 567 345 141	-10720 -10716 -10076 -9500 -8724	-6288 -6512 -6312 -6380 -6096	7540 7708 8760 8608 8644
17578	179	344	26	16	302	2	92	0	0	1	2 -47 -83 -107 -123 -133 -139 -140 -133 -119 -101 -82 -64 -51 -44 -42 -43 -47 -51 -53 -53 -51 -48 -45 -45 -44 -41 -37 -33 -29 -27 -24 -20 -9 19 73 151 231 252 137 -135 -517 -902 -1162 -1216 -1070 -800 -512 -278 -115	-22 -159 -283 -403 -528	-8900 -9104 -8916 -8496 -8232	-5552 -5440 -5364 -5664 -6232	8104 8064 7904 7872 7980
17579	179	336	26	16	302	2	92	0	0	1	-14 51 97 126 140 153 172 191 207 224 247 275 307 343 386 435 490 548 610 666 710 741 757 757 744 718 680 630 573 512 448 384 321 261 204 155 116 88 68 55 45 35 23 12 5 2 3 7 10 9	-657 -765 -840 -892 -932	-8652 -9104 -9168 -9064 -9152	-6244 -6236 -6120 -6032 -6208	7608 7528 7288 7624 7680
17580	179	336	26	16	302	2	92	0	0	0	-8 -23 -40 -54 -64 -70 -74 -78 -80 -80 -78 -72 -64 -53 -44 -37 -31 -26 -21 -3 38 112 212 290 258 65 -257 -612 -872 -936 -799 -554 -306 -109 21 96 145 179 197 206 218 233 244 252 263 281 303 327 354 388	-968 -1001 -1037 -1071 -1089	-9524 -9992 -10940 -9572 -9256	-6304 -5924 -5832 -5124 -5020	7252 7372 7700 8424 8316
17581	179	348	26	16	302	2	92	0	0	1	428 473 520 567 612 650 680 696 696 678 644 599 542 476 402 324 244 163 86 17 -42 -90 -123 -145 -158 -167 -176 -185 -191 -190 -184 -177 -171 -166 -165 -168 -174 -185 -197 -205 -212 -219 -224 -229 -233 -236 -238 -239 -238 -237	-1069 -989 -829 -610 -370	-8784 -8832 -8496 -8604 -8712	-5148 -5324 -5500 -5412 -5376	7748 7788 7940 7808 7648
17582	179	348	26	16	302	2	92	0	0	0	-236 -236 -234 -228 -218 -196 -150 -76 18 93 56 -134 -439 -795 -1102 -1261 -1252 -1109 -878 -631 -433 -297 -207 -149 -109 -83 -68 -56 -45 -34 -26 -21 -12 1 16 37 64 99 142 191 245 298 344 380 401 406 395 370 331 283	-143 59 241 423 613	-8960 -9436 -9116 -9328 -9472	-5428 -5516 -5824 -5884 -5920	7536 7808 7380 7592 7484
17583	179	344	26	16	302	2	92	0	0	1	230 173 114 56 -3 -59 -110 -151 -183 -206 -222 -232 -239 -247 -258 -269 -279 -289 -300 -314 -332 -350 -371 -394 -419 -441 -459 -473 -486 -497 -503 -502 -494 -483 -472 -460 -446 -428 -408 -387 -364 -330 -276 -202 -121 -54 -60 -182 -402 -684	798 963 1107 1218 1283	-9712 -10536 -10444 -9612 -9284	-5704 -6260 -6552 -6200 -6332	7648 7368 7964 8484 8596
17584	179	344	26	16	302	2	92	0	0	0	-966 -1162 -1220 -1150 -989 -787 -603 -464 -362 -290 -242 -210 -185 -162 -141 -122 -108 -94 -79 -61 -40 -12 24 68 121 181 246 314 379 437 482 512 527 526 512 487 452 411 363 311 260 210 163 123 90 64 45 32 23 14	1327 1367 1381 1332 1223	-8608 -8516 -8636 -8932 -8144	-6316 -6116 -5636 -5416 -5920	8668 8248 7796 7676 7444
17585	179	344	26	16	302	2	92	0	0	1	8 4 1 0 1 1 -6 -19 -34 -49 -65 -78 -90 -102 -113 -123 -130 -136 -138 -137 -137 -136 -133 -127 -121 -111 -91 -58 -2 76 160 222 211 85 -147 -442 -730 -917 -952 -844 -639 -404 -203 -56 49 120 168 197 215 230	1060 855 625 395 179	-8048 -8104 -8736 -9120 -9268	-6016 -6100 -6072 -6076 -6116	7640 7480 7328 7392 7120
17586	176	344	26	16	302	2	92	0	0	1	248 265 280 295 312 331 353 380 411 446 487 534 584 634 678 712 734 743 735 711 675 631 584 534 481 427 374 326 284 251 227 211 201 191 182 173 167 165 163 159 151 139 122 103 81 60 39 19 0 -18	-27 -227 -426 -614 -776	-9372 -10164 -11144 -10636 -9808	-5988 -6232 -6280 -5000 -4652	7716 7288 7148 8280 8200
17587	176	344	26	16	302	2	92	0	0	0	-44 -52 -59 -65 -70 -73 -75 -76 -79 -82 -81 -65 -22 51 135 166 69 -179 -533 -900 -1166 -1248 -1137 -894 -617 -386 -225 -129 -70 -29 -6 3 11 26 43 57 72 93 118 143 174 214 265 324 388 453 516 570 611 637	-895 -965 -967 -875 -707	-8876 -8712 -8716 -8656 -9044	-4680 -4696 -5088 -5604 -5192	8148 8056 7888 7728 7720
17588	176	336	26	16	302	2	92	0	0	1	647 641 617 577 527 468 402 334 267 202 139 82 32 -10 -42 -63 -77 -85 -91 -98 -108 -115 -116 -112 -109 -107 -112 -125 -139 -154 -172 -190 -205 -217 -226 -233 -238 -244 -249 -251 -253 -254 -253 -252 -251 -251 -251 -244 -215 -155	-505 -294 -97 69 209	-8920 -8888 -9120 -9200 -9428	-5384 -5256 -5552 -5644 -5732	7376 7488 7324 7160 7256
17589	176	336	26	16	302	2	92	0	0	0	-72 20 67 -14 -238 -549 -877 -1135 -1247 -1207 -1050 -819 -583 -396 -268 -181 -117 -70 -40 -21 -2 13 21 24 28 35 45 59 79 108 147 192 242 295 349 399 436 457 463 454 428 390 343 289 233 179 127 76 30 -11	336 455 561 657 733	-9388 -9360 -10312 -10856 -10416	-5764 -5460 -5976 -6472 -6352	7400 7572 7384 7436 8180
17590	176	352	26	16	302	2	92	0	0	1	-43 -67 -83 -92 -98 -103 -107 -109 -108 -107 -106 -105 -106 -115 -129 -147 -169 -189 -207 -224 -240 -259 -274 -286 -291 -290 -286 -281 -274 -267 -260 -252 -240 -220 -183 -122 -43 36 71 0 -190 -464 -760 -1003 -1121 -1092 -940 -711 -470 -272	772 782 779 754 703	-9580 -8828 -8644 -8668 -8528	-5912 -5976 -5832 -5704 -5504	8392 8404 8280 7800 7524
17591	176	344	26	16	302	2	92	0	0	1	-127 -22 54 108 146 172 194 216 237 256 273 291 312 335 363 396 435 479 528 580 629 670 698 714 714 698 671 633 585 532 473 410 349 292 239 193 155 123 99 83 69 57 46 38 33 30 28 24 17 5	630 527 390 222 43	-8156 -8700 -8664 -8784 -9324	-5592 -6116 -5924 -6052 -6212	7028 7008 7392 7376 7136
17592	176	344	26	16	302	2	92	0	0	0	-11 -28 -46 -63 -76 -89 -100 -107 -112 -114 -115 -115 -112 -107 -104 -101 -99 -94 -84 -66 -30 27 97 141 89 -113 -447 -827 -1131 -1256 -1177 -946 -660 -406 -217 -94 -17 35 73 96 111 127 144 160 176 196 221 249 280 318	-117 -248 -352 -419 -453	-9128 -9192 -9260 -9676 -10820	-6020 -5780 -5896 -6024 -5804	7244 7476 7696 6988 7740
17593	176	340	26	16	302	2	92	0	0	1	419 478 539 598 651 695 725 738 734 715 681 634 577 512 443 373 305 241 182 129 84 47 16 -9 -31 -51 -70 -90 -108 -122 -132 -140 -144 -153 -170 -193 -220 -248 -272 -289 -303 -315 -326 -336 -344 -348 -348 -345 -341 -337	-476 -499 -514 -508 -459	-10428 -9788 -9460 -8920 -9168	-5296 -4416 -4796 -5132 -5528	8084 8328 7960 8012 7748
17594	176	340	26	16	302	2	92	0	0	0	-330 -323 -316 -309 -297 -265 -202 -109 -2 46 -50 -304 -659 -1026 -1288 -1369 -1274 -1046 -761 -507 -323 -202 -126 -70 -28 -3 13 31 49 63 73 86 106 130 157 188 226 271 322 379 436 489 532 559 571 565 540 499 446 385	-360 -214 -39 143 311	-8984 -8920 -8636 -8688 -8280	-5460 -5284 -5284 -5220 -5468	7576 7416 7228 7444 7364
17595	176	348	26	16	302	2	92	0	0	1	321 253 182 113 46 -13 -63 -105 -139 -166 -186 -199 -209 -218 -226 -231 -232 -229 -226 -225 -233 -248 -265 -282 -300 -315 -325 -334 -343 -351 -359 -364 -365 -364 -361 -358 -351 -344 -338 -334 -328 -313 -279 -221 -151 -87 -76 -176 -382 -651	468 624 782 928 1046	-8896 -9092 -9440 -9760 -10652	-5604 -5656 -5636 -5664 -6196	7420 7396 7216 7228 7196
17596	176	348	26	16	302	2	92	0	0	0	-931 -1151 -1247 -1215 -1084 -893 -697 -535 -409 -309 -232 -174 -129 -94 -61 -33 -11 10 30 50 68 90 117 152 193 240 292 345 394 436 467 484 487 477 453 418 373 322 269 214 159 105 55 13 -19 -42 -58 -71 -78 -80	1133 1179 1170 1125 1056	-10256 -9340 -9188 -9560 -9068	-6428 -6064 -6016 -5936 -5624	7204 8344 8188 8044 8008
17597	176	344	26	16	302	2	92	0	0	1	-79 -73 -64 -51 -33 -13 4 14 17 18 16 13 8 3 -4 -10 -12 -13 -15 -18 -21 -23 -24 -24 -23 -24 -21 -8 17 66 134 199 233 182 16 -236 -527 -794 -959 -983 -879 -684 -456 -261 -119 -18 53 102 135 160	951 804 631 437 230	-8588 -8176 -7880 -7840 -8104	-5188 -5240 -5360 -5556 -5580	7572 7488 7376 7320 7448
17598	176	348	26	16	303	2	92	0	0	1	182 206 227 246 262 280 300 325 354 390 433 481 535 591 646 697 737 763 773 765 739 700 649 590 526 458 387 317 250 189 137 96 64 38 16 -5 -24 -39 -44 -42 -37 -32 -32 -34 -36 -37 -40 -41 -37 -28	20 -174 -345 -491 -609	-9132 -9392 -9712 -9532 -10204	-6012 -6060 -6060 -6104 -6060	7168 7144 7136 7360 6752
17599	176	348	26	16	303	2	92	0	0	0	-16 -4 7 17 28 36 43 51 58 63 65 67 72 85 116 173 249 315 303 146 -157 -538 -883 -1085 -1086 -910 -642 -371 -156 -14 70 125 162 180 187 192 202 212 217 224 231 239 249 265 288 322 363 407 453 498	-717 -827 -930 -1013 -1061	-10484 -10356 -9708 -9368 -9172	-5620 -5096 -4344 -4564 -5196	7320 7844 8044 8212 7600
17600	176	340	26	16	303	2	92	0	0	1	567 589 597 589 566 532 486 431 371 306 239 177 121 72 33 1 -22 -38 -47 -53 -56 -59 -64 -68 -66 -60 -53 -47 -46 -53 -66 -81 -101 -121 -139 -154 -169 -182 -193 -204 -212 -220 -227 -233 -236 -236 -237 -240 -240 -234	-1035 -930 -777 -605 -435	-8832 -8644 -8580 -8724 -8800	-5548 -5460 -5252 -5348 -5396	7580 7608 7464 7268 7124
17601	176	340	26	16	303	2	92	0	0	0	-207 -151 -65 36 84 -10 -258 -609 -978 -1253 -1353 -1276 -1062 -782 -521 -328 -201 -119 -61 -19 8 24 38 52 63 73 88 109 130 153 183 224 273 330 393 456 514 561 595 614 617 600 567 520 465 402 335 264 194 130	-286 -152 -22 104 210	-9092 -9224 -9464 -9616 -10364	-5448 -5504 -5876 -5672 -5944	7232 7224 7380 7460 7168
17602	176	352	26	16	303	2	92	0	0	1	73 20 -25 -60 -86 -103 -115 -125 -137 -147 -153 -155 -157 -157 -159 -167 -181 -196 -211 -228 -245 -260 -275 -291 -306 -319 -329 -338 -347 -355 -364 -374 -381 -386 -388 -386 -372 -336 -276 -204 -141 -142 -259 -487 -779 -1071 -1281 -1350 -1285 -1123	289 348 398 456 544	-10936 -10744 -9212 -8696 -8632	-6064 -6164 -6368 -6252 -6176	7784 8244 8488 8436 8280
17603	176	344	26	16	303	2	92	0	0	1	-911 -705 -542 -421 -331 -267 -220 -183 -152 -122 -93 -68 -43 -18 9 38 72 111 158 214 278 348 419 487 546 591 620 632 628 611 581 539 489 435 377 318 261 207 160 123 96 77 64 55 46 36 27 22 20 19	664 794 895 933 892	-8568 -8608 -8396 -8400 -8256	-5912 -5724 -5612 -5720 -5960	8032 7768 7540 7460 7624
17604	176	344	26	16	303	2	92	0	0	0	18 14 7 -3 -16 -31 -46 -61 -72 -82 -92 -100 -108 -114 -116 -117 -117 -117 -116 -116 -115 -110 -97 -69 -20 49 120 166 132 -20 -270 -566 -841 -1011 -1031 -916 -709 -475 -275 -129 -29 38 84 112 129 143 159 176 191 205	781 629 471 332 217	-8672 -8908 -8984 -9216 -9256	-6360 -6440 -6316 -6124 -5980	7376 7372 7252 7536 7668
17605	176	348	26	16	303	2	92	0	0	1	220 238 258 284 318 358 403 457 515 574 628 671 702 718 720 709 683 646 604 555 501 441 382 325 274 232 200 176 159 146 131 117 108 103 99 96 90 81 71 59 42 21 -3 -25 -45 -64 -81 -97 -114 -131	120 27 -83 -209 -334	-10460 -10764 -10316 -9620 -9424	-6264 -5704 -5412 -4688 -4968	7088 7608 8140 8260 8296
17606	174	348	26	16	303	2	92	0	0	0	-144 -156 -166 -173 -179 -182 -181 -172 -152 -110 -43 33 85 52 -111 -397 -744 -1060 -1243 -1246 -1083 -812 -528 -297 -134 -28 42 93 126 146 159 173 188 201 214 231 251 273 298 330 369 416 467 520 572 617 649 668 671 657	-438 -507 -531 -513 -470	-9232 -9096 -9016 -8596 -8552	-5244 -5516 -5480 -5572 -5312	7888 7836 7632 7408 7452
17607	174	340	26	16	303	2	92	0	0	1	588 535 473 406 337 269 204 143 86 38 1 -23 -39 -51 -58 -65 -71 -77 -79 -77 -72 -67 -65 -68 -77 -88 -100 -114 -126 -134 -141 -150 -156 -162 -167 -169 -170 -171 -170 -167 -163 -160 -156 -143 -112 -56 23 102 129 31	-372 -319 -261 -204 -153	-8540 -9096 -9340 -9460 -9956	-5364 -5432 -5712 -5608 -5868	7268 7352 7496 7416 7476
17608	174	340	26	16	303	2	92	0	0	0	-217 -559 -907 -1176 -1291 -1235 -1044 -782 -527 -332 -212 -144 -98 -68 -56 -52 -48 -40 -31 -21 -8 11 35 61 94 137 190 248 310 374 433 482 515 530 527 508 475 431 376 313 240 161 83 12 -48 -96 -134 -164 -187 -205	-90 0 109 231 367	-10868 -10392 -9536 -9060 -8852	-6412 -6288 -6184 -6184 -5916	7432 8884 8820 8588 8252
17609	174	344	26	16	303	2	92	0	0	1	-219 -229 -237 -244 -247 -244 -231 -210 -185 -164 -152 -146 -145 -148 -154 -160 -165 -169 -171 -173 -176 -176 -175 -170 -163 -158 -154 -153 -154 -154 -152 -143 -114 -57 31 120 131 -8 -300 -680 -1030 -1227 -1218 -1037 -767 -503 -305 -177 -103 -57	472 512 495 437 352	-8784 -8592 -8656 -8436 -8412	-5544 -5380 -5416 -5652 -5928	8316 7928 7528 7432 7364
17610	174	352	26	16	303	2	92	0	0	1	-27 -7 11 29 50 69 82 94 111 130 151 179 218 264 317 375 435 492 541 576 595 598 586 558 519 470 412 349 284 218 157 100 49 7 -28 -58 -81 -99 -114 -127 -140 -153 -163 -169 -171 -172 -174 -182 -197 -215	269 208 173 156 151	-8820 -9364 -9384 -9156 -9884	-6164 -6252 -5956 -5800 -5928	7456 7200 7104 7564 7608
17611	174	352	26	16	303	2	92	0	0	0	-232 -250 -265 -277 -287 -292 -296 -299 -300 -298 -291 -284 -275 -265 -254 -237 -217 -192 -158 -104 -30 57 139 155 37 -209 -526 -839 -1051 -1107 -1023 -843 -625 -421 -264 -158 -85 -34 0 24 44 60 71 75 77 80 84 89 96 111	153 149 130 104 83	-10516 -11632 -10892 -10192 -9052	-5752 -5328 -4424 -4592 -4752	7212 7836 7932 8340 8004
17612	174	352	26	16	303	2	92	0	0	1	135 168 206 251 295 335 366 385 390 382 361 330 289 236 177 115 52 -10 -68 -121 -167 -202 -227 -243 -254 -258 -258 -257 -253 -246 -236 -224 -213 -203 -200 -199 -200 -201 -202 -205 -208 -212 -215 -215 -214 -214 -212 -208 -202 -192	81 111 170 238 291	-9180 -8716 -8504 -8128 -8472	-5136 -5256 -5248 -5072 -4920	7568 7796 7744 7316 7300
17613	174	352	26	16	303	2	92	0	0	0	-183 -174 -165 -156 -143 -119 -79 -15 64 139 169 88 -118 -404 -708 -949 -1056 -1024 -884 -679 -464 -288 -159 -68 -4 42 75 98 116 131 140 148 158 170 183 199 220 248 287 337 393 451 508 563 609 642 657 654 636 603	319 325 322 324 319	-8808 -9156 -9548 -9416 -9608	-5116 -5224 -5420 -5424 -5160	7224 7024 7388 7204 7288
17614	174	348	26	16	303	2	92	0	0	1	506 445 380 313 246 185 135 96 65 38 15 -4 -21 -32 -37 -40 -41 -43 -47 -56 -66 -79 -96 -116 -134 -148 -161 -174 -187 -199 -208 -212 -213 -214 -216 -220 -223 -225 -226 -218 -193 -141 -66 5 12 -112 -378 -734 -1097 -1366	305 298 292 282 288	-11016 -10540 -9544 -9008 -8708	-5876 -6268 -5728 -6144 -6144	7560 7416 8228 8600 8220
17615	174	348	26	16	303	2	92	0	0	0	-1456 -1353 -1107 -806 -537 -343 -218 -135 -72 -26 3 27 55 85 112 139 170 203 237 275 319 370 429 495 565 636 699 749 782 797 795 775 740 692 634 568 498 427 354 284 219 160 109 66 33 9 -11 -30 -47 -63	304 294 242 156 50	-8748 -8896 -8736 -8408 -8520	-6108 -5324 -5484 -5788 -5980	8184 7744 7428 7476 7300
17616	174	336	26	16	303	2	92	0	0	1	-77 -85 -88 -88 -87 -87 -90 -97 -107 -119 -132 -144 -153 -158 -161 -162 -160 -157 -153 -147 -139 -132 -127 -121 -113 -103 -85 -54 -1 74 154 188 104 -135 -481 -834 -1077 -1124 -976 -715 -440 -213 -55 41 98 136 159 170 180 192	-60 -159 -238 -300 -354	-8812 -9152 -9140 -9176 -9772	-6012 -6076 -5952 -5852 -6036	7396 7336 7348 7716 7156
17617	174	348	26	16	303	2	92	0	0	1	203 209 216 228 246 267 293 329 372 421 475 531 585 633 669 688 692 682 658 621 575 522 463 402 340 278 219 167 123 87 60 41 28 15 3 -11 -25 -34 -38 -36 -29 -19 -15 -16 -20 -27 -38 -53 -69 -84	-402 -434 -449 -452 -458	-10168 -10816 -10684 -9360 -9264	-6092 -5856 -5476 -4320 -4708	7268 7776 7968 7952 7868
17618	174	348	26	16	303	2	92	0	0	0	-98 -107 -112 -119 -124 -127 -131 -133 -135 -140 -146 -155 -166 -174 -167 -133 -63 38 113 58 -167 -516 -903 -1202 -1312 -1233 -1018 -749 -508 -336 -229 -163 -117 -81 -57 -39 -19 4 24 45 70 98 125 155 193 239 292 349 411 475	-470 -481 -472 -436 -367	-9128 -8708 -8948 -8784 -8868	-4912 -5212 -5440 -5220 -5068	7808 7784 7660 7564 7328
17619	174	352	26	16	303	2	92	0	0	1	535 581 609 624 624 609 578 535 483 426 365 304 241 180 123 69 21 -17 -45 -67 -84 -100 -113 -124 -134 -139 -139 -137 -135 -136 -146 -163 -182 -204 -224 -241 -254 -266 -276 -287 -294 -299 -304 -307 -307 -306 -303 -300 -295 -289	-275 -177 -78 35 169	-8852 -8972 -9400 -9504 -9396	-5020 -5112 -5320 -5736 -5576	7356 7372 6948 7296 7152
17620	174	352	26	16	303	2	92	0	0	0	-252 -202 -126 -37 41 33 -115 -375 -683 -966 -1138 -1158 -1054 -868 -643 -438 -286 -181 -107 -57 -26 -7 7 17 27 34 39 47 58 73 93 122 158 198 245 299 356 409 455 487 505 506 493 469 435 392 342 286 227 167	318 469 625 771 882	-9504 -10192 -10612 -9728 -9352	-5396 -6152 -6336 -5864 -5636	7128 7284 7500 7876 8404
17621	174	348	26	16	303	2	92	0	0	1	110 58 14 -21 -45 -62 -76 -84 -91 -97 -101 -101 -101 -100 -100 -104 -115 -127 -141 -154 -166 -175 -181 -187 -193 -197 -201 -203 -201 -197 -193 -189 -185 -179 -172 -161 -138 -97 -30 54 135 172 104 -86 -361 -668 -927 -1060 -1045 -906	957 1012 1030 996 911	-9044 -8456 -8648 -9316 -9088	-5704 -6072 -5996 -5792 -5596	8380 8052 8104 7972 7584
17622	174	348	26	16	303	2	92	0	0	0	-685 -445 -246 -102 0 69 115 143 162 176 190 202 214 224 235 249 266 287 316 354 401 456 515 575 629 671 698 707 699 674 636 587 531 470 407 344 281 221 167 123 91 69 56 44 34 24 19 20 27 36	790 644 476 299 132	-8604 -8504 -8916 -9696 -8912	-5900 -5972 -6284 -6356 -6040	7716 7320 7344 7016 7472
17623	174	348	26	16	303	2	92	0	0	1	42 42 36 26 13 -3 -20 -36 -50 -63 -74 -83 -91 -97 -100 -102 -101 -99 -97 -97 -95 -88 -67 -27 37 114 172 149 -13 -313 -687 -1033 -1242 -1253 -1084 -805 -513 -276 -110 -4 68 123 163 186 204 224 243 258 272 290	-19 -158 -279 -375 -449	-9080 -9448 -9608 -10648 -10112	-5896 -6184 -6060 -6128 -5960	7704 7624 6980 6824 7976
17624	174	340	26	16	303	2	92	0	0	1	310 330 353 384 424 471 526 584 639 687 724 747 753 742 716 675 621 556 486 413 343 275 209 150 101 65 39 21 8 -2 -10 -17 -25 -32 -35 -33 -29 -28 -36 -52 -76 -103 -133 -164 -190 -214 -235 -254 -269 -280	-508 -561 -622 -681 -708	-9280 -9192 -9272 -8820 -8776	-5048 -4936 -5064 -5920 -5868	8264 8324 8180 8032 7916
17625	174	340	26	16	303	2	92	0	0	0	-288 -292 -294 -294 -294 -292 -290 -289 -285 -268 -227 -157 -64 15 -6 -192 -521 -909 -1240 -1404 -1359 -1144 -844 -548 -316 -163 -67 -1 48 81 102 123 146 167 184 202 225 251 276 305 344 390 443 502 561 618 663 696 713 712	-695 -647 -574 -494 -428	-8664 -8600 -8812 -8716 -9072	-5720 -5608 -5396 -5388 -5908	7700 7512 7316 7440 7196
17626	174	348	26	16	303	2	92	0	0	1	694 661 615 555 486 411 334 258 187 119 59 7 -32 -61 -80 -92 -101 -111 -121 -128 -131 -129 -124 -120 -120 -124 -133 -146 -161 -178 -193 -204 -211 -214 -215 -216 -216 -215 -212 -206 -199 -194 -190 -186 -183 -179 -167 -136 -80 5	-377 -330 -269 -196 -122	-9348 -9564 -9552 -9928 -10368	-5740 -5928 -5748 -5840 -6240	7212 7096 7188 7176 7040
17627	174	348	26	16	303	2	92	0	0	0	115 -25 -311 -677 -1029 -1251 -1282 -1149 -915 -653 -431 -277 -180 -115 -68 -38 -21 -4 17 38 56 73 94 118 146 181 221 266 318 377 441 504 559 599 625 634 625 599 560 510 451 384 313 240 170 103 41 -13 -56 -88	-41 56 147 239 340	-10216 -9032 -8952 -8784 -8772	-6460 -5976 -6180 -6216 -6104	7688 8324 8300 8264 8056
17628	174	348	26	16	303	2	92	0	0	1	-112 -130 -145 -158 -165 -168 -167 -161 -154 -147 -144 -149 -159 -170 -182 -193 -202 -208 -213 -217 -219 -222 -226 -227 -222 -217 -210 -204 -198 -193 -187 -174 -150 -110 -45 38 121 145 39 -198 -510 -830 -1062 -1141 -1079 -916 -694 -475 -306 -187	428 483 513 516 490	-8972 -8848 -8500 -8356 -8232	-5912 -5732 -5776 -6044 -6112	7656 7448 7364 7484 7828
17629	174	348	26	16	303	2	92	0	0	1	-99 -38 5 37 61 81 101 118 132 146 163 183 207 237 275 322 379 443 510 574 630 673 700 712 709 690 659 616 560 499 436 371 307 247 194 150 116 92 73 60 52 45 37 32 31 32 33 29 21 11	437 364 267 151 23	-8732 -8880 -9168 -9260 -10260	-5980 -5916 -5920 -5784 -6160	7472 7196 7660 7544 6976
17630	174	348	26	16	303	2	92	0	0	0	-1 -17 -34 -49 -61 -70 -79 -88 -97 -104 -109 -110 -106 -100 -95 -92 -90 -83 -63 -26 37 121 202 234 153 -61 -371 -712 -999 -1145 -1119 -949 -694 -437 -231 -86 14 83 130 160 181 198 216 230 242 254 266 279 293 312	-100 -208 -295 -370 -443	-10860 -10848 -9596 -9320 -9004	-6052 -5224 -4384 -4376 -4756	7472 7892 8356 8168 7928
17631	174	348	26	16	303	2	92	0	0	1	340 377 421 473 527 578 619 648 663 662 644 609 561 504 440 372 303 233 166 105 49 1 -38 -67 -86 -95 -103 -112 -122 -126 -126 -123 -119 -119 -125 -133 -142 -154 -168 -182 -191 -197 -199 -200 -201 -204 -206 -203 -199 -193	-514 -571 -602 -595 -557	-9024 -8804 -8792 -8520 -8584	-5236 -5212 -5152 -5020 -5032	7520 7572 7664 7508 7184
17632	174	348	26	16	303	2	92	0	0	0	-188 -185 -180 -170 -154 -124 -72 0 73 108 33 -182 -491 -826 -1109 -1258 -1243 -1091 -846 -580 -359 -205 -104 -35 13 43 63 79 95 108 116 125 139 154 172 195 226 263 307 359 417 478 534 579 611 629 629 612 583 542	-503 -442 -373 -291 -206	-8812 -9304 -9536 -9324 -9776	-5148 -5296 -5520 -5332 -5196	7180 7180 7292 6960 7060
17633	174	344	26	16	303	2	92	0	0	1	494 442 386 326 268 215 165 118 79 50 31 23 16 8 -2 -10 -14 -16 -22 -33 -49 -69 -91 -115 -141 -166 -187 -203 -218 -229 -238 -245 -246 -243 -239 -233 -228 -224 -223 -221 -214 -196 -157 -91 -7 58 29 -156 -477 -847	-135 -68 12 94 177	-10616 -10688 -9744 -9220 -9072	-5908 -6256 -6052 -6220 -6164	7268 7460 8612 9400 8384
17634	174	344	26	16	303	2	92	0	0	0	-1335 -1311 -1119 -831 -535 -294 -133 -36 29 78 111 130 143 158 172 184 198 219 245 273 303 341 387 440 500 563 625 677 717 742 752 746 725 692 649 598 541 479 417 357 302 254 213 179 150 128 112 98 84 68	269 344 361 309 199	-8868 -8636 -8756 -8444 -8248	-5832 -5748 -5440 -5508 -5744	8044 7840 7656 7588 7640
17635	174	344	26	16	303	2	92	0	0	1	54 43 36 32 32 34 33 28 19 4 -15 -34 -49 -61 -71 -78 -85 -90 -91 -88 -85 -83 -81 -79 -76 -71 -65 -55 -35 5 71 154 201 130 -96 -431 -771 -984 -990 -809 -539 -283 -89 36 108 153 180 190 194 202	56 -99 -252 -391 -512	-8352 -8740 -9304 -9476 -9544	-5960 -5896 -5876 -5932 -5992	7580 7580 7292 7256 7864
17636	174	352	26	16	303	2	92	0	0	1	212 222 229 236 246 260 277 300 330 368 414 467 525 581 629 664 686 694 687 667 633 590 539 477 406 333 263 201 152 111 76 44 16 -8 -30 -48 -64 -75 -80 -78 -72 -64 -56 -54 -59 -67 -79 -93 -107 -120	-607 -674 -714 -725 -703	-10296 -11692 -11468 -9988 -8932	-6292 -6388 -5480 -4720 -4968	7348 7476 8024 8540 8168
17637	174	352	26	16	303	2	92	0	0	0	-133 -146 -159 -172 -187 -202 -215 -228 -238 -245 -250 -253 -258 -263 -258 -235 -185 -108 -7 82 64 -115 -418 -774 -1075 -1214 -1180 -1021 -792 -561 -378 -255 -174 -116 -70 -34 -8 13 33 49 59 70 85 104 127 157 190 230 279 337	-654 -592 -521 -432 -334	-8624 -8896 -8956 -8800 -8584	-4952 -5200 -5156 -5048 -5080	7872 7904 7600 7148 7416
17638	174	348	26	16	303	2	92	0	0	1	399 462 517 560 592 607 601 578 538 486 425 361 292 221 153 89 30 -20 -60 -93 -123 -146 -164 -177 -186 -191 -193 -191 -188 -186 -194 -209 -226 -242 -258 -271 -281 -290 -300 -310 -316 -322 -326 -326 -324 -321 -315 -309 -305 -300	-240 -140 -28 102 249	-8832 -8900 -9028 -9172 -9220	-5064 -5208 -5256 -5620 -5644	7388 7296 6892 7304 7316
17639	174	348	26	16	303	2	92	0	0	0	-291 -274 -241 -184 -101 -8 67 65 -66 -304 -598 -878 -1061 -1109 -1041 -887 -689 -495 -342 -229 -144 -78 -26 16 49 74 92 107 121 135 152 174 197 222 253 294 341 395 451 504 549 583 603 606 591 561 521 469 409 345	400 534 635 700 727	-9816 -10596 -10412 -9700 -9288	-5400 -5628 -6148 -6220 -6156	7344 7296 8740 8664 8708
17640	174	352	26	16	303	2	92	0	0	1	278 213 154 101 56 20 -4 -18 -27 -32 -35 -35 -31 -22 -11 1 10 14 16 16 12 4 -2 -5 -7 -9 -10 -14 -17 -18 -16 -13 -9 -3 3 9 17 30 53 95 161 237 289 251 75 -215 -554 -865 -1051 -1063	716 662 560 401 198	-8892 -8836 -8604 -8472 -8288	-5820 -5732 -5316 -5296 -5776	8032 7816 7640 7836 7680
17641	174	352	26	16	303	2	92	0	0	0	-674 -411 -197 -51 44 112 159 187 204 222 245 266 284 302 321 343 365 394 432 482 540 605 674 739 796 839 865 875 870 847 813 768 715 658 598 539 481 426 373 325 286 258 240 227 214 200 186 176 174 172	-22 -240 -452 -659 -859	-8396 -8636 -8756 -8644 -9344	-5880 -5812 -5692 -5640 -5844	7784 7344 7056 6904 7304
17642	174	340	26	16	303	2	92	0	0	1	170 166 160 150 136 115 91 70 50 30 7 -13 -27 -34 -38 -39 -37 -30 -20 -8 2 11 22 38 74 140 225 296 292 144 -158 -544 -896 -1099 -1091 -899 -617 -342 -123 31 130 197 242 271 289 304 318 329 335 339	-1045 -1194 -1298 -1357 -1386	-10452 -11212 -10624 -9544 -9808	-6580 -6252 -5492 -4520 -4752	7256 7460 8332 8380 8096
17643	174	344	26	16	303	2	92	0	0	1	345 353 361 374 395 424 458 494 531 567 596 615 621 612 592 561 519 461 387 302 215 132 56 -13 -77 -131 -173 -203 -223 -235 -241 -245 -247 -250 -250 -245 -235 -224 -213 -206 -203 -206 -213 -225 -238 -246 -253 -261 -268 -274	-1381 -1334 -1226 -1060 -845	-8956 -8928 -8672 -8476 -8628	-5308 -5516 -5572 -5408 -5080	7936 7812 7664 7564 7432
17644	174	344	26	16	303	2	92	0	0	0	-280 -285 -289 -292 -294 -294 -293 -294 -295 -293 -287 -266 -218 -140 -46 -5 -105 -354 -702 -1072 -1345 -1440 -1357 -1140 -865 -618 -443 -330 -257 -204 -167 -145 -126 -107 -89 -75 -62 -44 -23 3 31 65 108 158 215 277 344 407 459 498	-615 -391 -180 32 258	-8808 -8976 -8876 -9564 -9604	-4944 -5120 -5304 -5720 -5480	7136 7052 7120 7156 7212
17645	174	348	26	16	303	2	92	0	0	1	520 526 516 491 454 406 351 292 232 171 113 57 8 -33 -63 -84 -98 -108 -114 -117 -119 -121 -123 -124 -121 -119 -127 -144 -167 -193 -216 -240 -264 -282 -296 -308 -317 -330 -341 -345 -341 -335 -331 -329 -327 -324 -317 -301 -271 -217	483 689 867 1031 1169	-10320 -10716 -10452 -9144 -8832	-5576 -5876 -6384 -6496 -6204	7108 7560 8484 8400 8412
17646	174	348	26	16	303	2	92	0	0	0	-138 -42 31 0 -184 -479 -815 -1108 -1265 -1260 -1127 -909 -662 -452 -301 -197 -121 -64 -24 6 33 58 81 100 119 139 161 185 214 252 296 347 405 467 529 585 629 656 667 663 644 611 568 518 462 403 342 279 217 162	1280 1361 1394 1353 1244	-8588 -8744 -8776 -8384 -8308	-6040 -5964 -5680 -5544 -6000	8184 8236 7560 7792 7640
17647	174	352	26	16	303	2	92	0	0	1	75 41 12 -8 -21 -31 -40 -50 -56 -56 -54 -53 -56 -66 -80 -96 -112 -126 -136 -144 -153 -161 -166 -167 -166 -163 -157 -151 -144 -132 -115 -97 -77 -50 -14 46 128 216 286 285 165 -59 -346 -632 -827 -879 -803 -637 -436 -256	1094 928 762 595 432	-8132 -8408 -8928 -8836 -8844	-6188 -6284 -6064 -5736 -5612	7584 7412 7124 7324 7316
17648	174	352	26	16	303	2	92	0	0	1	-123 -28 40 87 118 138 154 169 182 193 202 213 229 248 273 305 343 392 450 519 592 663 722 765 790 801 796 776 745 705 659 608 555 500 445 393 349 316 293 280 274 267 261 257 258 263 268 273 275 268	283 147 -1 -173 -369	-9580 -10636 -10732 -9504 -9392	-5784 -5860 -5648 -4868 -4800	7928 7380 7512 7924 7852
17649	174	352	26	16	303	2	92	0	0	0	255 240 222 204 185 169 152 135 119 106 96 90 86 84 82 80 79 79 82 93 117 164 232 300 333 283 117 -157 -490 -796 -975 -980 -828 -585 -338 -143 -6 84 144 183 207 222 232 245 257 268 279 294 312 335	-588 -819 -1021 -1159 -1226	-9068 -8940 -8320 -8196 -8336	-5068 -5296 -5184 -5296 -5228	7476 7204 7460 7584 7176
17650	174	340	26	16	303	2	92	0	0	1	363 395 432 477 529 584 636 681 712 730 734 723 700 665 619 565 504 441 377 314 251 192 137 90 54 28 11 0 -10 -21 -30 -35 -33 -26 -21 -21 -27 -38 -53 -72 -90 -105 -115 -121 -126 -129 -132 -133 -131 -127	-1237 -1212 -1163 -1097 -1015	-8868 -8896 -9100 -9292 -9356	-5208 -5048 -5384 -5596 -5352	6864 6812 7028 6936 6776
17651	174	340	26	16	303	2	92	0	0	0	-122 -117 -111 -107 -104 -100 -92 -70 -20 54 129 145 30 -231 -582 -934 -1190 -1281 -1200 -990 -728 -495 -326 -220 -156 -109 -74 -55 -47 -38 -25 -11 4 21 41 63 89 125 168 219 275 334 395 452 498 530 547 548 535 509	-929 -828 -696 -535 -365	-10540 -10552 -10628 -9108 -8988	-5856 -6440 -6584 -6228 -5988	6876 6880 8116 8084 7704
17652	174	344	26	16	303	2	92	0	0	1	474 429 378 323 268 213 159 109 66 32 9 -5 -12 -14 -13 -12 -10 -7 -1 7 18 32 47 58 65 67 63 54 46 39 33 28 24 20 15 14 16 20 24 27 28 31 37 48 66 104 162 225 250 167	-194 -54 16 4 -66	-8996 -8944 -8888 -8132 -8152	-5856 -5744 -5564 -5500 -5632	7516 7444 7464 7404 7364
17653	174	344	26	16	303	2	92	0	0	0	-63 -404 -765 -1027 -1105 -997 -766 -506 -289 -133 -30 37 84 113 129 139 155 174 191 205 222 239 256 275 301 336 376 420 464 507 545 574 589 588 570 541 504 464 416 363 304 243 182 122 67 21 -16 -45 -67 -84	-161 -252 -315 -333 -306	-8156 -8460 -9012 -8760 -9224	-5644 -5488 -5676 -5728 -5992	7232 7008 7032 7220 7204
17654	174	348	26	16	303	2	92	0	0	1	-110 -120 -131 -142 -148 -147 -144 -141 -138 -137 -137 -137 -143 -154 -170 -183 -191 -194 -194 -195 -198 -199 -194 -181 -165 -149 -135 -124 -112 -93 -61 -12 60 151 240 263 148 -104 -433 -752 -953 -978 -854 -640 -404 -201 -56 41 106 153	-245 -156 -50 39 99	-9872 -11112 -10608 -9804 -9144	-5972 -5744 -5132 -4984 -4708	7128 7416 7680 7860 7956
17655	174	352	26	16	303	2	92	0	0	1	182 201 218 236 252 262 269 273 279 288 303 322 348 381 420 465 510 549 584 608 617 613 596 567 530 486 433 375 315 254 193 135 85 48 21 2 -13 -24 -33 -36 -36 -36 -35 -30 -21 -12 -7 -8 -16 -26	127 129 122 133 162	-9016 -8984 -8824 -8456 -8372	-4732 -5072 -5140 -5252 -5224	7788 7384 7180 7432 7236
17656	172	352	26	16	303	2	92	0	0	0	-38 -49 -59 -69 -81 -93 -103 -109 -113 -116 -121 -127 -132 -134 -135 -136 -134 -123 -99 -52 15 89 145 131 4 -212 -479 -738 -913 -960 -892 -742 -551 -373 -238 -136 -58 -6 29 53 73 90 108 125 141 159 177 197 220 250	205 257 318 379 440	-8652 -9084 -9240 -9320 -9300	-4908 -5248 -5192 -5256 -5208	6764 6756 6688 7024 7040
17657	172	352	26	16	303	2	92	0	0	1	285 326 372 422 475 527 569 599 615 618 607 581 544 499 447 390 330 267 205 148 97 53 15 -16 -43 -68 -95 -122 -146 -162 -171 -175 -176 -180 -187 -199 -213 -229 -244 -256 -265 -274 -283 -288 -291 -292 -291 -286 -278 -269	495 530 554 595 661	-9844 -10700 -10888 -9732 -9104	-5492 -5876 -6260 -6268 -6296	6980 7088 7864 8332 7956
17658	172	352	26	16	303	2	92	0	0	0	-257 -246 -237 -227 -211 -180 -123 -42 46 96 39 -156 -458 -797 -1070 -1181 -1104 -884 -602 -345 -154 -26 58 117 158 181 197 215 235 254 273 295 318 343 369 399 435 477 524 573 622 663 693 710 714 703 678 639 591 536	739 802 810 735 589	-8840 -8944 -8764 -8376 -8060	-5844 -5532 -5292 -5376 -5836	7856 7648 7752 7740 7628
17659	172	348	26	16	303	2	92	0	0	1	478 419 358 296 235 178 131 92 62 39 24 14 9 5 1 -4 -5 0 9 20 31 40 45 44 39 30 19 13 8 2 -6 -15 -23 -28 -30 -31 -33 -36 -41 -46 -53 -59 -63 -53 -16 53 142 201 151 -55	404 215 42 -110 -240	-8148 -8744 -9180 -9204 -9260	-6052 -6096 -6124 -5952 -5924	7576 7512 7384 7420 7512
17660	172	348	26	16	303	2	92	0	0	0	-381 -727 -966 -1006 -857 -618 -390 -215 -100 -30 21 57 78 93 112 136 157 175 193 214 240 270 302 337 375 415 459 504 547 583 609 622 621 606 577 539 492 436 375 311 246 181 120 63 13 -29 -65 -91 -106 -116	-343 -418 -467 -486 -486	-9876 -10764 -10976 -10168 -9684	-6160 -5972 -5032 -4464 -4576	7212 6780 8692 8632 8376
17661	172	352	26	16	303	2	92	0	0	1	-128 -136 -145 -150 -149 -145 -141 -140 -144 -154 -170 -188 -210 -234 -257 -278 -295 -308 -318 -328 -335 -340 -343 -344 -344 -344 -344 -342 -340 -329 -297 -236 -146 -42 6 -89 -334 -672 -1019 -1264 -1334 -1245 -1040 -779 -541 -368 -253 -175 -117 -74	-477 -448 -376 -263 -116	-9584 -8604 -8304 -8372 -8544	-4264 -5272 -5328 -5164 -5172	8232 7760 7748 7548 7444
17662	172	352	26	16	303	2	92	0	0	1	-46 -30 -17 -4 8 18 28 42 59 82 111 147 191 241 296 354 410 457 489 505 506 494 467 426 374 312 246 180 117 54 -7 -65 -112 -150 -178 -199 -215 -228 -238 -242 -246 -249 -246 -239 -231 -223 -221 -228 -237 -245	62 265 476 695 922	-8560 -8944 -10060 -9700 -9624	-5016 -4936 -5384 -5388 -5788	7572 7228 6692 7204 7088
17663	172	352	26	16	303	2	92	0	0	0	-256 -267 -276 -285 -294 -301 -308 -316 -324 -328 -329 -328 -325 -323 -321 -320 -317 -305 -275 -216 -137 -57 -7 -51 -216 -470 -766 -1032 -1187 -1200 -1095 -909 -694 -505 -365 -264 -191 -139 -104 -78 -57 -41 -25 -8 8 26 45 69 98 132	1135 1323 1481 1594 1659	-9900 -10516 -10912 -9744 -9012	-5580 -6196 -6252 -5944 -6212	6980 7312 8120 8464 8260
17664	172	352	26	16	303	2	92	0	0	1	173 220 271 326 381 434 480 515 534 534 518 488 448 401 350 296 238 181 127 76 33 -1 -28 -47 -58 -63 -63 -62 -59 -50 -35 -17 0 17 29 34 37 37 36 36 38 43 48 53 59 61 63 70 79 89	1685 1671 1599 1454 1229	-8952 -8920 -9452 -8420 -7728	-5876 -5676 -6008 -5244 -5844	8072 7756 7132 7608 7560
17665	172	352	26	16	303	2	92	0	0	0	98 107 115 121 128 141 167 215 285 361 417 404 280 50 -245 -542 -746 -797 -708 -515 -279 -69 88 205 291 352 395 426 450 470 488 503 513 521 532 548 568 590 618 651 689 730 774 814 844 860 858 842 812 771	918 536 109 -341 -768	-7824 -8432 -8608 -9312 -9460	-5832 -6052 -6064 -5840 -5856	7452 7364 7460 7260 6916
17666	172	352	26	16	303	2	92	0	0	1	724 670 608 542 475 410 351 300 256 219 192 174 164 157 148 137 125 118 115 114 112 108 101 91 78 62 46 33 25 20 18 19 22 29 36 42 47 52 56 59 58 55 53 64 101 169 255 309 255 53	-1127 -1414 -1628 -1770 -1862	-10788 -10904 -10428 -9904 -9660	-6564 -6264 -4856 -4300 -4460	6580 6948 8184 8292 7916
17667	172	352	26	16	303	2	92	0	0	0	-271 -638 -943 -1092 -1049 -855 -602 -370 -206 -111 -57 -16 10 19 21 28 37 47 56 68 83 103 128 158 195 240 290 346 404 455 495 523 535 531 513 482 440 390 334 273 210 148 88 33 -17 -60 -95 -124 -145 -156	-1907 -1877 -1766 -1583 -1342	-9040 -8904 -8080 -8092 -8500	-4772 -5260 -5596 -5412 -5404	7856 7660 7644 7460 7248
17668	172	348	26	16	303	2	92	0	0	1	-167 -172 -179 -188 -194 -195 -192 -186 -180 -177 -180 -189 -201 -214 -229 -245 -266 -290 -311 -328 -342 -354 -366 -380 -392 -403 -410 -416 -421 -425 -425 -410 -364 -279 -167 -91 -143 -354 -687 -1061 -1359 -1485 -1417 -1198 -908 -635 -431 -296 -209 -149	-1080 -831 -591 -333 -61	-8684 -9312 -9528 -9696 -9684	-5508 -5444 -5692 -6004 -5724	7008 6892 6936 6984 6916
17669	172	356	26	16	303	2	92	0	0	1	-108 -81 -60 -36 -10 12 30 51 74 97 121 149 183 222 264 310 360 407 444 468 475 467 442 402 350 289 220 148 75 2 -66 -129 -188 -241 -284 -313 -332 -341 -343 -343 -342 -342 -339 -331 -318 -305 -293 -284 -281 -281	209 472 736 995 1234	-10200 -10840 -10044 -8992 -8584	-5732 -6684 -6584 -6396 -5604	7244 8084 8788 8240 7816
17670	172	356	26	16	303	2	92	0	0	0	-284 -291 -298 -301 -302 -301 -302 -302 -302 -302 -301 -296 -289 -283 -276 -268 -259 -248 -233 -202 -147 -66 37 135 140 -15 -304 -659 -990 -1187 -1207 -1087 -872 -621 -405 -258 -160 -92 -42 -3 23 40 54 69 82 92 103 116 131 148	1439 1586 1633 1572 1436	-8432 -8088 -8172 -7868 -8740	-5476 -5844 -5736 -6100 -6232	7652 7612 7640 7196 7404
17671	172	352	26	16	303	2	92	0	0	1	172 206 248 297 350 403 452 492 519 533 531 512 482 443 396 345 291 237 184 134 86 41 3 -26 -44 -56 -63 -67 -68 -70 -73 -75 -75 -73 -71 -71 -77 -91 -108 -127 -148 -166 -180 -190 -199 -205 -210 -213 -213 -210	1279 1131 1005 898 814	-9196 -9416 -9212 -9608 -10572	-6328 -6288 -6116 -6340 -6104	6840 7060 7340 6988 7184
17672	172	352	26	16	303	2	92	0	0	0	-203 -193 -183 -173 -159 -144 -122 -86 -36 36 123 211 263 213 41 -223 -530 -800 -948 -943 -812 -611 -400 -226 -101 -13 51 91 113 133 154 171 182 188 191 196 204 216 234 259 290 328 372 417 464 505 533 549 550 536	738 644 525 389 245	-11588 -10592 -9116 -8860 -8760	-5300 -4708 -4980 -5080 -5248	7876 8244 7816 7988 7532
17673	172	356	26	16	303	2	92	0	0	1	512 478 433 381 325 265 204 144 86 31 -17 -55 -84 -106 -121 -130 -133 -133 -134 -136 -137 -138 -137 -134 -133 -139 -148 -157 -169 -179 -187 -196 -206 -215 -221 -229 -235 -239 -239 -235 -231 -229 -228 -227 -222 -208 -179 -129 -56 23	105 -2 -58 -61 -23	-8500 -8480 -8392 -8452 -8844	-5464 -5292 -5156 -5008 -5260	7652 7344 7332 7188 6976
17674	172	356	26	16	303	2	92	0	0	0	77 -31 -236 -504 -785 -999 -1086 -1042 -895 -696 -506 -355 -242 -157 -97 -55 -27 -6 12 28 44 59 76 96 118 144 176 214 259 309 365 426 485 540 583 612 623 619 600 569 529 484 435 383 330 278 228 181 139 104	146 259 357 411 421	-9276 -8832 -10132 -10792 -10088	-5900 -5248 -5360 -6296 -6224	6996 7324 6716 7100 8204
17675	172	352	26	16	303	2	92	0	0	1	76 53 38 29 23 18 14 13 14 15 14 7 -4 -15 -25 -38 -53 -67 -79 -90 -102 -115 -126 -134 -140 -146 -150 -152 -151 -149 -145 -138 -119 -78 -6 87 170 179 56 -204 -551 -904 -1165 -1255 -1158 -913 -607 -334 -134 -2	400 358 316 276 203	-9808 -9172 -9016 -8756 -8048	-6992 -6488 -5828 -5484 -5028	7968 8028 7680 7528 7604
17676	170	348	26	16	303	2	92	0	0	1	82 144 187 213 231 254 276 295 313 334 357 381 407 439 478 524 574 626 674 717 751 772 778 768 742 701 649 587 517 442 369 300 234 172 118 71 34 9 -8 -19 -26 -31 -35 -37 -36 -31 -22 -12 0 11	71 -116 -339 -560 -749	-7856 -8120 -8492 -9268 -9340	-5308 -5740 -6000 -6264 -6308	7700 7624 7660 7244 7188
17677	170	348	26	16	303	2	92	0	0	0	20 26 28 27 22 16 12 12 13 15 15 16 20 26 33 40 49 58 66 78 96 129 186 262 342 388 342 148 -185 -574 -902 -1061 -1009 -792 -504 -237 -30 114 210 281 336 376 409 442 478 511 534 554 572 592	-893 -1010 -1116 -1230 -1364	-9224 -9272 -10740 -11016 -10264	-6068 -5892 -6100 -5716 -5044	7188 7556 6988 7936 8604
17678	170	356	26	16	303	2	92	0	0	1	613 637 666 704 749 801 855 904 947 976 990 990 974 941 897 842 778 707 632 555 479 408 341 279 225 181 146 118 91 63 35 5 -25 -55 -81 -101 -114 -123 -132 -148 -170 -195 -221 -248 -273 -296 -319 -342 -366 -391	-1499 -1620 -1701 -1703 -1595	-9692 -9284 -8976 -8764 -8500	-4644 -4792 -5244 -5596 -5496	8360 8276 7792 7556 7380
17679	170	356	26	16	303	2	92	0	0	0	-413 -429 -440 -446 -448 -447 -443 -440 -437 -430 -413 -374 -307 -212 -115 -97 -230 -508 -866 -1202 -1400 -1412 -1268 -1027 -767 -561 -424 -341 -288 -248 -219 -200 -184 -166 -148 -134 -122 -108 -92 -72 -47 -14 26 73 128 189 253 313 362 395	-1396 -1128 -816 -494 -186	-8524 -8504 -8352 -8908 -9224	-5468 -5296 -5284 -5228 -5344	7292 7292 7024 6672 6652
17680	170	360	26	16	303	2	92	0	0	1	412 414 403 378 343 298 248 194 137 77 18 -37 -86 -126 -156 -178 -198 -214 -226 -234 -237 -240 -244 -246 -242 -235 -229 -225 -228 -237 -246 -256 -265 -270 -270 -271 -274 -274 -274 -272 -265 -256 -247 -240 -229 -218 -210 -204 -199 -191	98 355 568 724 830	-9652 -9684 -10528 -10660 -10108	-5556 -5516 -5784 -6128 -6360	6828 7120 6864 7592 8284
17681	170	360	26	16	303	2	92	0	0	0	-119 -42 53 130 110 -54 -333 -671 -988 -1186 -1227 -1132 -941 -718 -528 -394 -304 -241 -198 -171 -154 -141 -128 -116 -104 -93 -79 -59 -36 -10 24 64 109 162 220 281 341 394 434 457 465 459 442 415 377 332 281 228 174 122	902 962 1023 1079 1108	-9268 -8608 -8760 -8904 -8308	-6452 -6048 -5812 -5520 -5508	9084 8360 8012 7680 7632
17682	170	356	26	16	303	2	92	0	0	1	73 30 -7 -35 -53 -65 -72 -77 -79 -79 -79 -78 -75 -69 -62 -55 -55 -63 -75 -88 -102 -116 -129 -140 -151 -162 -170 -177 -179 -176 -172 -168 -163 -156 -147 -138 -125 -101 -62 2 89 187 270 274 149 -94 -405 -707 -896 -922	1089 1011 880 702 482	-7932 -8104 -8264 -8704 -9112	-5680 -5872 -6024 -5996 -5944	7744 7620 7472 7356 7724
17683	170	356	26	16	303	2	92	0	0	0	-802 -582 -334 -124 29 143 228 291 337 370 399 427 451 468 483 499 516 532 549 569 594 626 666 713 763 811 849 874 885 880 861 830 791 744 691 632 570 507 446 392 344 305 274 251 235 226 219 210 203 199	223 -68 -369 -652 -884	-9208 -9556 -10820 -10668 -9664	-5868 -5984 -6340 -5568 -4900	7644 7488 6808 7876 8056
17684	170	356	26	16	303	2	92	0	0	1	200 208 216 220 221 219 213 202 187 170 154 141 127 111 93 77 65 55 47 41 37 32 26 16 9 8 24 69 137 199 190 51 -231 -602 -969 -1226 -1300 -1185 -943 -675 -457 -313 -229 -175 -133 -105 -93 -84 -72 -59	-1050 -1168 -1242 -1260 -1225	-9632 -9516 -9004 -8568 -8532	-4756 -4848 -5236 -5348 -5460	8380 8092 7740 7792 7668
17685	170	348	26	16	303	2	92	0	0	1	-49 -37 -23 -6 13 37 68 109 158 212 271 331 386 430 459 476 475 457 426 385 335 278 218 156 95 35 -22 -73 -118 -151 -175 -193 -204 -212 -219 -225 -232 -240 -246 -248 -245 -240 -233 -229 -232 -241 -252 -267 -283 -297	-1144 -1009 -843 -680 -526	-8416 -8568 -8904 -9056 -9372	-5196 -5148 -5172 -5308 -5424	7436 7396 7040 6852 7024
17686	170	348	26	16	303	2	92	0	0	0	-309 -319 -329 -337 -341 -344 -344 -342 -340 -336 -333 -329 -327 -327 -324 -313 -278 -210 -109 -1 34 -84 -355 -704 -1032 -1240 -1266 -1121 -865 -575 -319 -135 -21 54 110 146 164 178 194 207 214 216 220 225 231 238 253 277 310 350	-373 -224 -96 13 130	-9680 -10248 -10728 -10512 -9952	-5784 -5500 -5984 -6448 -6492	7108 6936 7480 8204 8432
17687	170	364	26	16	303	2	92	0	0	1	393 438 479 510 527 530 515 484 440 385 322 255 186 116 49 -13 -68 -118 -162 -197 -223 -239 -247 -249 -252 -257 -264 -271 -275 -272 -265 -257 -250 -244 -242 -241 -246 -254 -262 -269 -270 -269 -268 -269 -269 -266 -260 -249 -237 -225	259 397 548 687 762	-9136 -8972 -8872 -8460 -8604	-6372 -6096 -5820 -5604 -5424	8180 8232 8020 7764 7740
17688	170	364	26	16	304	2	92	0	0	0	-200 -189 -181 -174 -158 -119 -46 60 155 153 -5 -308 -685 -1016 -1180 -1145 -958 -702 -469 -305 -206 -148 -113 -91 -80 -73 -62 -47 -31 -15 4 28 54 83 116 161 216 277 342 406 469 526 572 604 621 623 612 593 564 527	750 676 577 475 377	-8120 -8152 -8448 -9052 -9252	-6040 -5992 -6068 -6052 -6140	7624 7892 7548 7228 7356
17689	170	356	26	16	304	2	92	0	0	1	484 439 390 339 286 236 190 151 121 95 74 59 46 36 28 16 4 -6 -15 -18 -18 -21 -29 -42 -54 -65 -73 -77 -77 -74 -68 -58 -45 -31 -13 6 27 47 66 83 94 102 109 119 146 200 284 393 475 432	291 211 124 21 -91	-8972 -9784 -10576 -10600 -9992	-5956 -6312 -6428 -4996 -4464	7596 7628 6988 8232 7904
17690	170	356	26	16	304	2	92	0	0	0	229 -89 -450 -741 -864 -810 -629 -393 -172 -6 98 167 216 248 263 271 276 276 270 259 249 242 234 227 227 235 251 276 311 351 390 426 454 469 470 456 429 390 342 288 228 165 100 35 -31 -92 -148 -197 -235 -262	-207 -315 -395 -422 -381	-9752 -9128 -9000 -8464 -8312	-4604 -4800 -4972 -5328 -5436	8276 8024 7788 7628 7380
17691	170	360	26	16	304	2	92	0	0	1	-283 -298 -310 -319 -325 -328 -327 -323 -315 -307 -299 -294 -296 -300 -306 -314 -321 -327 -332 -335 -337 -338 -342 -347 -348 -348 -349 -347 -344 -341 -337 -329 -316 -289 -239 -162 -76 4 22 -75 -281 -557 -849 -1075 -1173 -1138 -997 -790 -581 -416	-268 -103 90 293 486	-8284 -8368 -8844 -9152 -9156	-5316 -5244 -5376 -5416 -5496	7328 7196 7032 6900 7724
17692	170	360	26	16	304	2	92	0	0	1	-296 -206 -138 -87 -48 -17 7 29 50 68 86 104 125 152 184 223 270 328 393 462 531 593 643 679 698 701 689 667 638 602 559 511 459 406 354 303 256 214 179 151 130 114 99 84 70 59 52 50 48 43	648 752 772 722 627	-9340 -9324 -10692 -10452 -9624	-5720 -5096 -6460 -6260 -5944	7312 7272 7268 7932 8212
17693	170	360	26	16	304	2	92	0	0	0	32 17 -2 -27 -55 -86 -115 -139 -162 -182 -199 -213 -223 -228 -229 -227 -224 -220 -218 -216 -209 -193 -155 -86 9 102 130 29 -216 -556 -902 -1152 -1226 -1112 -858 -560 -303 -121 -8 63 117 154 174 192 215 240 262 282 304 328	519 432 373 309 214	-9288 -9088 -9148 -8756 -8548	-6572 -5688 -5376 -4948 -5148	8224 7600 7524 7640 7416
17694	170	352	26	16	304	2	92	0	0	1	355 386 421 460 504 553 605 655 698 728 744 746 731 703 661 608 547 478 406 332 259 191 129 73 25 -11 -37 -55 -65 -69 -70 -69 -68 -68 -67 -63 -53 -38 -22 -8 3 10 10 3 -4 -12 -18 -22 -26 -30	76 -91 -262 -415 -538	-8144 -8252 -8648 -9060 -9320	-5824 -6000 -5968 -5952 -5980	7384 7508 7360 7204 7116
17695	170	352	26	16	304	2	92	0	0	0	-39 -43 -44 -44 -41 -37 -34 -32 -29 -25 -17 12 70 156 246 277 167 -111 -489 -845 -1062 -1069 -894 -632 -380 -184 -49 35 94 141 174 196 220 249 279 306 329 352 378 405 432 464 504 552 609 671 730 779 817 842	-628 -695 -741 -768 -777	-9536 -10084 -10732 -10952 -9920	-5916 -6192 -6184 -6028 -4668	7420 6900 7240 7588 8048
17696	169	356	26	16	304	2	92	0	0	1	852 847 827 793 748 695 636 574 512 448 384 325 271 221 175 136 107 83 62 40 15 -13 -42 -69 -94 -116 -134 -151 -170 -195 -222 -247 -272 -295 -317 -336 -354 -369 -382 -393 -403 -407 -407 -404 -400 -395 -388 -385 -382 -375	-786 -800 -793 -737 -628	-9480 -9372 -8660 -8532 -8404	-4368 -4564 -4744 -5292 -5212	8224 7872 7920 7468 7352
17697	169	356	26	16	304	2	92	0	0	0	-353 -307 -233 -134 -39 -34 -183 -464 -811 -1132 -1321 -1338 -1212 -989 -732 -514 -364 -264 -192 -137 -97 -73 -57 -40 -22 -8 2 14 31 50 73 101 135 174 222 275 331 384 431 468 490 495 487 463 426 381 329 273 213 153	-460 -238 6 254 494	-8536 -8540 -8364 -9244 -9336	-5296 -5112 -5228 -5272 -5416	7216 7380 7040 6716 7068
17698	169	364	26	16	304	2	92	0	0	1	95 37 -16 -63 -103 -133 -155 -170 -182 -190 -193 -193 -194 -195 -191 -185 -177 -170 -168 -173 -183 -197 -212 -226 -236 -243 -251 -258 -264 -268 -269 -269 -267 -265 -264 -261 -257 -250 -239 -221 -189 -131 -48 43 123 131 17 -204 -489 -782	721 921 1077 1177 1217	-9512 -9456 -10740 -10936 -9988	-5588 -5416 -6272 -6232 -6136	7068 6996 7152 7748 8132
17699	169	364	26	16	304	2	92	0	0	0	-996 -1071 -1013 -853 -641 -443 -294 -187 -109 -55 -20 4 21 36 50 60 68 78 89 104 122 144 173 211 258 311 369 426 476 517 546 560 558 542 514 477 431 379 325 268 214 165 119 78 44 20 6 0 -1 1	1208 1176 1136 1078 993	-9608 -8860 -8708 -8964 -8728	-6140 -6172 -5708 -5556 -5596	8456 8076 7784 7672 7272
17700	169	360	26	16	304	2	92	0	0	1	5 10 15 24 35 49 64 77 84 84 81 76 71 69 68 65 61 57 54 55 59 65 71 75 80 84 89 94 102 119 151 205 279 350 379 314 129 -149 -468 -747 -897 -886 -736 -500 -258 -65 73 172 246 301	865 677 425 137 -166	-8292 -8008 -8520 -8928 -9092	-5580 -5764 -5724 -6032 -5948	7304 7396 7268 7092 7152
17701	169	352	26	16	304	2	92	0	0	1	342 375 409 445 477 500 516 528 543 561 584 611 642 675 712 752 794 831 860 876 879 866 839 800 752 699 647 594 541 491 444 400 361 328 303 285 272 264 258 249 239 229 219 212 209 207 203 197 188 174	-479 -773 -1025 -1243 -1416	-9344 -9692 -10792 -10924 -10772	-5772 -6120 -6208 -5828 -5560	7492 7112 6944 7308 7896
17702	169	352	26	16	304	2	92	0	0	0	136 120 107 96 85 75 67 60 54 50 45 40 35 27 16 6 0 8 45 111 189 220 126 -121 -470 -833 -1114 -1236 -1174 -962 -688 -443 -268 -167 -110 -63 -25 -7 3 16 32 42 49 60 77 95 116 143 179 218	-1532 -1598 -1612 -1561 -1447	-9532 -9304 -8904 -8740 -8448	-4644 -4716 -4884 -5264 -5268	8116 7856 7616 7568 7504
17703	169	352	26	16	304	2	92	0	0	1	256 297 344 391 431 459 475 477 464 438 400 352 297 237 174 113 55 3 -44 -85 -118 -142 -160 -173 -182 -188 -191 -195 -199 -202 -207 -208 -206 -202 -201 -202 -209 -221 -235 -251 -268 -282 -292 -300 -306 -312 -315 -316 -317 -318	-1270 -1050 -819 -595 -381	-8496 -8408 -8684 -9140 -9252	-5224 -5252 -5084 -5364 -5440	7420 7344 7040 6748 6864
17704	169	352	26	16	304	2	92	0	0	0	-319 -319 -321 -324 -326 -328 -327 -315 -280 -213 -118 -26 -21 -177 -469 -822 -1140 -1324 -1325 -1164 -900 -610 -361 -187 -76 3 63 103 129 154 182 209 229 247 266 285 304 323 347 378 416 461 511 562 607 644 666 671 658 631	-175 16 170 284 364	-9620 -9376 -10080 -10524 -9840	-5916 -5492 -5440 -6116 -5900	6952 7048 7240 7676 8404
17705	169	364	26	16	304	2	92	0	0	1	587 531 464 390 311 231 152 76 5 -59 -112 -154 -187 -213 -230 -243 -251 -256 -259 -265 -270 -268 -260 -248 -236 -227 -223 -224 -229 -237 -249 -258 -263 -265 -266 -263 -260 -257 -255 -250 -245 -239 -231 -223 -217 -213 -210 -199 -168 -106	415 455 507 560 589	-9496 -9240 -9080 -8796 -8620	-6164 -6408 -5884 -5756 -5616	8472 8184 7884 7772 7472
17706	169	364	26	16	304	2	92	0	0	0	-10 85 91 -63 -359 -723 -1042 -1202 -1165 -970 -698 -436 -242 -122 -54 -8 28 49 61 72 86 97 105 116 131 150 170 196 231 274 322 377 434 490 539 577 600 608 601 578 548 514 474 432 390 349 308 270 237 211	575 512 417 304 175	-8156 -7924 -8268 -8744 -9168	-5616 -5972 -5928 -5980 -5964	7400 7160 7372 6992 6896
17707	169	360	26	16	304	2	92	0	0	1	189 174 162 154 150 148 147 145 140 135 134 139 150 167 185 199 205 203 194 176 153 132 114 97 84 72 63 61 68 82 100 118 137 155 169 181 193 208 243 305 392 472 460 282 -40 -415 -727 -874 -825 -628	35 -118 -282 -460 -641	-9124 -9432 -10548 -10776 -10644	-5940 -6076 -6452 -6052 -5720	6936 7200 6760 6688 7616
17708	169	360	26	16	304	2	92	0	0	1	-122 73 202 281 340 384 411 429 447 467 484 496 506 520 539 559 582 610 642 678 720 762 800 828 841 840 822 788 738 674 602 524 440 355 272 191 115 45 -17 -69 -111 -143 -171 -199 -230 -262 -291 -316 -336 -351	-814 -976 -1112 -1173 -1135	-9272 -9392 -9420 -9164 -8536	-4596 -4688 -4812 -5340 -5540	7896 8076 7792 7584 7612
17709	169	360	26	16	304	2	92	0	0	0	-358 -358 -356 -352 -349 -349 -351 -356 -367 -382 -394 -401 -407 -412 -413 -414 -414 -415 -416 -416 -415 -413 -410 -409 -409 -409 -404 -380 -326 -237 -139 -113 -235 -505 -865 -1222 -1451 -1490 -1362 -1120 -846 -616 -456 -352 -284 -232 -195 -170 -149 -129	-1001 -785 -515 -227 52	-8252 -8544 -8688 -8860 -9032	-5304 -5196 -5108 -5208 -5656	7308 7344 7012 6976 6968
17710	169	360	26	16	304	2	92	0	0	1	-111 -98 -85 -67 -47 -24 3 35 74 124 183 246 309 370 424 464 488 495 486 464 433 393 343 287 231 174 119 70 28 -7 -33 -51 -62 -67 -69 -70 -71 -73 -75 -77 -80 -85 -90 -95 -98 -108 -127 -150 -175 -202	317 566 778 931 1030	-9744 -9364 -10136 -10676 -10320	-5704 -5632 -5584 -6360 -6508	7052 7048 7020 7800 8088
17711	169	360	26	16	304	2	92	0	0	0	-227 -251 -274 -297 -316 -335 -355 -371 -380 -386 -392 -398 -403 -407 -410 -411 -402 -375 -319 -233 -127 -42 -63 -233 -516 -846 -1143 -1313 -1322 -1200 -987 -745 -539 -391 -287 -209 -150 -109 -78 -49 -21 3 23 44 65 86 110 138 172 215	1103 1173 1250 1334 1396	-9568 -8920 -8320 -8780 -8852	-6620 -6428 -6104 -5640 -5504	8328 8400 8240 7420 7660
17712	169	364	26	16	304	2	92	0	0	1	266 321 381 440 496 545 581 602 606 592 563 521 468 412 355 297 237 178 119 65 22 -13 -42 -65 -80 -90 -97 -100 -104 -107 -109 -107 -102 -99 -97 -99 -109 -122 -136 -150 -162 -169 -175 -181 -186 -190 -191 -189 -185 -180	1408 1362 1270 1154 1030	-8368 -8352 -8108 -8740 -8932	-5688 -5844 -5936 -6124 -6200	7608 7652 7580 7600 7396
17713	169	364	26	16	304	2	92	0	0	0	-176 -171 -166 -161 -156 -147 -128 -91 -32 44 123 180 156 15 -231 -540 -837 -1029 -1069 -980 -802 -595 -417 -285 -189 -119 -70 -34 -7 15 36 55 73 90 108 128 152 182 218 259 308 368 437 510 583 650 705 740 754 746	904 783 679 591 500	-9048 -9456 -10472 -11000 -10800	-6096 -6152 -6308 -6216 -5464	7440 7516 7212 7532 8008
17714	169	360	26	16	304	2	92	0	0	1	720 682 637 584 527 469 411 353 298 244 195 154 122 98 81 67 57 51 45 41 40 43 47 53 56 54 47 37 21 2 -16 -31 -45 -60 -75 -90 -104 -114 -122 -128 -133 -138 -143 -149 -152 -144 -118 -65 16 104	395 269 114 -51 -190	-9488 -9056 -9124 -9232 -8800	-5016 -4892 -5028 -5476 -5460	8480 8388 7880 7756 7720
17715	169	360	26	16	304	2	92	0	0	0	109 -64 -348 -685 -996 -1193 -1224 -1097 -864 -604 -387 -234 -132 -63 -14 18 38 54 70 85 100 118 138 159 184 212 243 279 323 372 426 483 538 585 619 636 636 618 587 547 498 443 385 327 269 210 154 102 55 17	-281 -325 -324 -295 -254	-8380 -8572 -8668 -8820 -9476	-5248 -5140 -5124 -5028 -5484	7632 7504 7156 7060 6964
17716	169	356	26	16	304	2	92	0	0	1	-12 -30 -38 -38 -36 -34 -33 -33 -30 -22 -13 -3 6 9 9 5 -1 -10 -19 -26 -29 -31 -32 -32 -28 -20 -6 9 21 29 35 41 46 51 63 94 159 251 340 357 235 -40 -415 -793 -1072 -1178 -1098 -883 -618 -380	-209 -175 -174 -211 -261	-9628 -9496 -10164 -11000 -10068	-5712 -5676 -5484 -6116 -6304	7108 6984 6996 7172 8252
17717	169	356	26	16	304	2	92	0	0	1	-209 -102 -38 9 41 58 68 78 89 98 109 125 143 163 185 214 253 301 356 415 476 533 579 612 632 637 627 604 568 522 469 412 353 292 231 173 119 72 36 8 -12 -23 -29 -32 -31 -30 -28 -24 -16 -3	-296 -303 -276 -235 -221	-9488 -9008 -8540 -8568 -8388	-6492 -6236 -5712 -5268 -5156	8384 7980 7768 7640 7596
17718	169	356	26	16	304	2	92	0	0	0	13 31 49 61 67 68 63 54 45 37 29 20 14 9 6 3 0 -3 -5 -8 -12 -19 -28 -39 -50 -55 -41 7 92 177 188 58 -213 -560 -875 -1041 -1001 -796 -528 -291 -125 -26 32 78 112 130 146 169 193 211	-270 -381 -523 -659 -768	-8320 -8116 -8360 -9004 -9228	-5176 -5560 -5636 -5980 -5980	7452 7604 7336 7060 6796
17719	169	364	26	16	304	2	92	0	0	1	225 244 269 295 321 350 386 429 476 525 578 630 675 705 721 721 703 671 628 578 523 466 407 346 288 234 186 143 107 80 63 57 59 64 71 77 82 87 94 102 110 117 122 122 118 108 93 77 59 41	-835 -862 -864 -859 -859	-9264 -9216 -10316 -10980 -10580	-5976 -5796 -6060 -5912 -5768	7104 7304 7224 6836 7688
17720	169	364	26	16	304	2	92	0	0	0	28 18 11 7 3 0 -3 -5 -9 -15 -23 -31 -40 -52 -67 -74 -58 -10 79 184 210 77 -211 -595 -974 -1223 -1284 -1177 -957 -706 -501 -368 -287 -237 -198 -169 -152 -137 -120 -106 -99 -92 -79 -61 -42 -19 12 53 101 153	-870 -883 -872 -810 -683	-9780 -9236 -9176 -8952 -8424	-4832 -4804 -5192 -5360 -5536	8280 7872 7648 7600 7500
17721	169	360	26	16	304	2	92	0	0	1	211 271 329 377 410 426 423 409 385 351 309 258 201 144 88 33 -19 -67 -111 -147 -173 -193 -208 -219 -228 -235 -241 -247 -253 -256 -254 -249 -244 -242 -248 -261 -277 -295 -313 -329 -341 -353 -366 -377 -385 -388 -387 -383 -380 -377	-491 -251 2 245 479	-8232 -8584 -8888 -9056 -9408	-5440 -5108 -5252 -5588 -5700	7612 6964 6852 6696 6900
17722	169	360	26	16	304	2	92	0	0	0	-368 -363 -358 -350 -331 -292 -224 -132 -30 42 11 -152 -412 -714 -984 -1138 -1150 -1047 -861 -646 -461 -326 -228 -157 -106 -71 -47 -32 -18 -4 6 13 20 27 42 62 87 117 151 192 240 292 344 390 424 440 439 425 399 363	692 868 1007 1117 1197	-9700 -10480 -10736 -9764 -9436	-5372 -5580 -6420 -6328 -6520	6956 6508 6524 8124 8548
17723	169	364	26	16	304	2	92	0	0	1	316 260 200 137 73 7 -53 -104 -145 -177 -199 -212 -219 -220 -219 -218 -215 -214 -213 -208 -203 -195 -187 -185 -189 -196 -205 -216 -225 -231 -234 -234 -235 -234 -231 -228 -223 -213 -202 -189 -173 -154 -132 -104 -64 -8 71 168 265 335	1256 1319 1394 1449 1436	-8772 -8548 -8520 -8436 -7940	-6308 -5964 -5620 -5216 -5540	8164 7980 7664 7408 7676
17724	169	364	26	16	304	2	92	0	0	0	323 195 -28 -309 -588 -779 -833 -758 -586 -372 -179 -34 71 150 204 241 269 292 311 329 344 357 368 378 388 402 423 454 498 550 609 673 739 800 851 887 907 912 902 882 852 814 771 726 676 622 570 521 475 433	1333 1139 860 508 103	-7720 -7752 -8860 -9336 -9400	-5764 -5816 -5924 -5952 -5968	7464 7144 6872 7184 7224
17725	169	360	26	16	304	2	92	0	0	1	397 368 347 332 320 308 294 277 260 245 231 220 211 200 186 173 160 147 132 118 107 100 95 96 99 104 110 117 124 133 142 149 152 155 168 201 264 351 437 466 383 161 -178 -552 -861 -1017 -983 -789 -512 -249	-317 -712 -1065 -1367 -1588	-9372 -11068 -11256 -10472 -10248	-5928 -6508 -5916 -5116 -4708	7188 6800 7608 8284 8064
17726	167	360	26	16	304	2	92	0	0	1	-52 75 152 207 249 275 287 295 306 318 329 340 351 365 384 409 440 477 518 561 605 645 678 700 707 699 674 635 585 523 453 377 297 217 140 68 1 -59 -112 -156 -190 -215 -233 -248 -263 -276 -287 -296 -307 -320	-1730 -1818 -1854 -1811 -1685	-9340 -8996 -8528 -8108 -8300	-4664 -5028 -5296 -5336 -5368	8120 7560 7644 7708 7364
17727	167	360	26	16	304	2	92	0	0	0	-331 -336 -336 -333 -333 -339 -348 -358 -368 -377 -383 -385 -387 -389 -390 -391 -389 -385 -377 -368 -361 -355 -349 -344 -335 -321 -294 -238 -148 -42 15 -57 -289 -633 -999 -1275 -1374 -1282 -1046 -759 -509 -331 -221 -153 -101 -66 -46 -33 -17 0	-1487 -1233 -953 -681 -432	-8256 -8560 -9016 -9228 -9608	-5128 -5152 -5164 -5468 -5736	7176 7132 6960 6632 6976
17728	167	364	26	16	304	2	92	0	0	1	10 19 34 55 81 108 140 182 233 289 353 420 483 541 589 623 639 636 619 590 550 502 446 386 325 264 202 144 91 43 0 -36 -66 -92 -115 -136 -156 -175 -193 -212 -230 -244 -254 -262 -270 -277 -287 -300 -316 -334	-209 -25 116 236 363	-10056 -10980 -10732 -10292 -9208	-5488 -6064 -6448 -6636 -6484	6928 7108 7852 8300 8276
17729	167	364	26	16	304	2	92	0	0	0	-368 -380 -392 -402 -409 -414 -415 -412 -407 -402 -398 -395 -394 -392 -390 -391 -388 -366 -315 -225 -114 -48 -115 -347 -687 -1029 -1240 -1240 -1056 -790 -547 -372 -263 -198 -146 -102 -71 -47 -18 18 49 74 98 126 155 183 216 254 298 349	512 681 856 994 1042	-9036 -9044 -8680 -8408 -7920	-5912 -5636 -5460 -5492 -5608	7980 7856 7636 7440 7540
17730	167	368	26	16	304	2	92	0	0	1	404 461 516 566 606 636 649 646 626 593 553 507 457 405 350 292 234 177 122 72 31 -2 -25 -41 -50 -57 -61 -64 -68 -70 -71 -70 -65 -55 -42 -30 -22 -18 -17 -19 -24 -28 -32 -38 -43 -48 -54 -60 -64 -65	987 855 684 505 340	-7856 -8072 -8624 -9388 -9452	-5756 -5888 -5948 -6108 -6152	7444 7420 7136 6980 7116
17731	167	368	26	16	304	2	92	0	0	0	-66 -65 -63 -65 -71 -77 -84 -85 -67 -21 56 152 198 107 -134 -476 -834 -1093 -1172 -1084 -877 -619 -382 -204 -78 14 85 142 187 223 253 277 295 310 328 349 370 390 414 443 482 528 581 638 694 743 782 805 812 800	196 81 -10 -92 -167	-9568 -10252 -10472 -9800 -9824	-6200 -6548 -5904 -4956 -4728	7252 6752 7340 8272 7956
17732	167	360	26	16	304	2	92	0	0	1	774 736 686 628 568 505 439 371 307 248 195 150 109 70 36 9 -15 -38 -61 -81 -100 -121 -136 -146 -153 -158 -163 -173 -190 -210 -229 -249 -267 -280 -288 -296 -304 -310 -315 -317 -317 -315 -313 -312 -310 -306 -303 -296 -281 -248	-238 -311 -368 -379 -334	-9520 -8940 -8440 -8348 -8524	-4652 -5316 -5364 -5520 -5476	7960 7576 7428 7488 7232
17733	167	360	26	16	304	2	92	0	0	0	-189 -108 -17 47 16 -144 -407 -719 -1003 -1171 -1188 -1080 -887 -667 -479 -343 -246 -175 -124 -88 -63 -45 -30 -17 -6 2 9 19 33 53 77 107 143 185 234 287 339 384 419 442 449 443 425 394 353 305 253 197 139 85	-229 -76 98 281 466	-8296 -8712 -9132 -9440 -9464	-5396 -5032 -5148 -5296 -5764	7256 6532 6764 6832 7088
17734	167	368	26	16	304	2	92	0	0	1	37 -8 -47 -78 -103 -121 -130 -136 -139 -137 -133 -129 -126 -124 -121 -119 -118 -119 -123 -130 -140 -151 -163 -174 -186 -195 -204 -212 -218 -223 -228 -230 -228 -226 -222 -219 -213 -207 -200 -186 -161 -112 -33 62 149 168 68 -152 -456 -781	632 756 844 893 892	-9504 -10648 -10520 -9896 -9308	-5208 -6048 -6320 -5608 -6368	6900 6988 7516 8452 8296
17735	167	368	26	16	304	2	92	0	0	0	-1038 -1152 -1109 -941 -710 -491 -323 -204 -116 -52 -9 20 41 59 77 92 107 124 142 160 182 210 244 286 338 394 454 513 568 615 651 671 675 663 636 597 548 493 437 382 326 270 218 170 128 92 65 46 36 31	857 810 746 653 531	-9028 -9016 -9000 -8924 -8200	-5944 -5820 -5556 -5324 -5772	8484 7940 7724 7716 7464
17736	167	368	26	16	304	2	92	0	0	1	30 28 24 20 20 24 31 36 36 32 26 16 3 -10 -18 -21 -21 -23 -24 -23 -19 -14 -8 0 11 23 35 45 57 79 116 180 266 350 395 351 177 -118 -466 -768 -923 -884 -684 -412 -162 24 148 227 282 322	383 215 26 -180 -394	-7972 -8200 -8588 -9160 -9364	-5916 -5956 -5920 -5916 -5804	7508 7388 7200 7120 6896
17737	167	360	26	16	304	2	92	0	0	1	347 362 380 401 418 428 433 438 445 459 477 500 532 572 623 680 736 788 830 860 878 886 883 870 848 814 768 715 653 589 525 464 408 358 315 282 259 244 231 219 209 201 196 192 187 183 182 182 185 188	-608 -812 -998 -1164 -1304	-9660 -10256 -10936 -10156 -9412	-6064 -6392 -5468 -4864 -4548	7268 6972 7888 8336 8332
17738	167	360	26	16	304	2	92	0	0	0	185 177 164 148 130 108 87 70 55 42 28 12 -5 -20 -35 -51 -68 -83 -100 -122 -147 -171 -177 -148 -81 7 50 -29 -265 -616 -989 -1271 -1378 -1293 -1067 -799 -576 -422 -329 -273 -228 -195 -176 -162 -142 -118 -100 -86 -68 -44	-1418 -1509 -1563 -1545 -1453	-9232 -9068 -8636 -8348 -8464	-4624 -4828 -5560 -5516 -5404	8072 7836 7804 8180 7240
17739	167	364	26	16	304	2	92	0	0	1	-19 8 40 82 129 180 236 294 350 401 440 464 470 458 433 396 349 293 231 166 99 32 -33 -94 -150 -199 -241 -272 -295 -309 -317 -320 -321 -319 -314 -311 -310 -306 -298 -285 -269 -257 -253 -253 -254 -259 -266 -274 -279 -277	-1329 -1139 -880 -582 -270	-8556 -8904 -8924 -9468 -9760	-5336 -5144 -5464 -5332 -5784	7364 7016 7048 7208 7144
17740	167	364	26	16	304	2	92	0	0	0	-273 -270 -266 -260 -254 -246 -237 -226 -213 -202 -194 -190 -186 -176 -152 -100 -16 98 199 191 16 -286 -638 -948 -1124 -1135 -1008 -789 -542 -336 -198 -116 -62 -24 -6 0 2 7 13 14 15 18 20 22 29 44 68 101 142 189	65 346 547 683 781	-10240 -10760 -10572 -9860 -9604	-5368 -5792 -6260 -6028 -6320	6860 6904 7628 8140 8424
17741	167	372	26	16	304	2	92	0	0	1	239 287 329 360 375 375 362 337 303 262 213 158 101 44 -12 -66 -117 -161 -198 -225 -243 -254 -260 -263 -263 -259 -252 -247 -245 -246 -244 -239 -232 -224 -222 -226 -233 -243 -254 -263 -271 -277 -283 -288 -292 -294 -294 -292 -291 -291	877 994 1121 1231 1300	-8836 -8988 -8576 -8684 -8168	-5996 -5984 -5740 -5420 -5992	8052 8004 7520 7548 7300
17742	167	372	26	16	304	2	92	0	0	0	-290 -290 -294 -298 -298 -290 -263 -211 -137 -53 14 -5 -158 -417 -732 -1031 -1221 -1259 -1167 -984 -761 -563 -418 -316 -241 -186 -147 -118 -94 -75 -55 -38 -21 -1 20 42 69 99 135 179 232 291 351 411 467 510 538 551 551 538	1320 1309 1290 1271 1242	-8032 -8520 -8792 -8928 -9128	-6028 -6184 -6144 -6248 -5784	7480 7220 7376 7128 7196
17743	167	368	26	16	304	2	92	0	0	1	477 432 380 323 264 205 149 101 61 28 3 -15 -26 -31 -34 -34 -30 -25 -20 -18 -17 -12 -2 9 20 26 24 18 12 7 2 0 0 0 -3 -6 -8 -8 -4 2 8 11 15 19 25 31 39 58 101 171	1116 1014 887 735 565	-10508 -10708 -9884 -9572 -9124	-6332 -5876 -4520 -4596 -4544	6720 7180 7976 8056 7972
17744	167	368	26	16	304	2	92	0	0	0	252 323 325 203 -30 -331 -643 -881 -979 -933 -775 -561 -358 -208 -104 -29 26 66 92 111 128 143 155 165 176 188 201 216 238 267 302 346 396 450 503 552 593 623 637 634 614 580 533 477 415 351 286 222 157 96	380 191 16 -121 -210	-9180 -8732 -8632 -8456 -8456	-4984 -5464 -5268 -5320 -5204	7684 7640 7372 7380 7372
17745	167	368	26	16	304	2	92	0	0	1	41 -8 -48 -79 -103 -119 -128 -135 -140 -144 -145 -143 -139 -133 -127 -123 -120 -121 -126 -136 -147 -158 -171 -182 -193 -203 -211 -217 -221 -225 -226 -224 -221 -217 -213 -209 -202 -193 -175 -138 -72 21 119 169 101 -109 -418 -755 -1038 -1189	-257 -270 -257 -224 -189	-8620 -9076 -9080 -9560 -9724	-5144 -5844 -5532 -5740 -5500	7108 6800 7216 7104 7100
17746	165	368	26	16	304	2	92	0	0	0	-1175 -1015 -758 -484 -259 -102 4 79 135 171 193 214 239 264 286 305 323 343 365 391 424 463 507 558 614 670 722 764 794 809 807 789 754 705 643 574 501 426 351 279 209 144 86 35 -5 -36 -60 -77 -91 -102	-169 -164 -172 -186 -184	-11064 -10796 -9604 -9420 -9176	-6272 -5912 -5620 -6272 -5828	7268 7904 8192 8388 7832
17747	165	368	26	16	304	2	92	0	0	1	-111 -119 -129 -138 -144 -146 -144 -138 -133 -130 -129 -134 -143 -154 -164 -169 -169 -167 -163 -159 -154 -147 -138 -130 -123 -116 -109 -102 -97 -92 -85 -68 -22 57 161 235 201 9 -319 -698 -1022 -1197 -1180 -998 -733 -476 -284 -165 -96 -50	-163 -148 -156 -185 -225	-9088 -8940 -8768 -8296 -8124	-5444 -5452 -5260 -5464 -6124	7748 7552 7396 7556 7344
17748	165	368	26	16	304	2	92	0	0	1	-18 -3 1 9 23 37 48 60 77 96 116 142 177 222 274 333 394 456 511 556 587 603 603 588 561 523 480 433 386 336 286 237 191 152 118 88 67 52 44 40 39 41 44 47 48 46 42 38 36 37	-262 -281 -284 -286 -305	-8344 -8888 -9312 -9192 -9676	-6012 -5904 -5928 -5912 -6028	7272 7148 7224 7468 7060
17749	165	368	26	16	304	2	92	0	0	0	48 52 53 49 42 35 28 24 24 25 28 32 39 48 58 70 83 97 111 125 136 143 149 167 215 302 417 502 469 267 -71 -448 -750 -884 -819 -606 -338 -92 89 200 265 310 340 355 363 373 384 392 398 403	-346 -401 -469 -548 -634	-10752 -10948 -9644 -9232 -9344	-6236 -5952 -4688 -4420 -4660	6832 7316 7844 7700 7984
17750	165	372	26	16	304	2	92	0	0	1	408 412 416 425 443 466 496 530 565 597 621 635 636 625 601 564 517 462 401 333 262 190 119 48 -20 -82 -137 -182 -216 -240 -257 -269 -276 -281 -285 -287 -289 -292 -298 -300 -295 -285 -271 -259 -254 -257 -263 -271 -283 -295	-704 -732 -698 -604 -459	-9224 -9044 -8576 -8640 -8764	-5068 -5428 -5304 -5324 -5324	7712 7440 7440 7240 7272
17751	165	372	26	16	304	2	92	0	0	0	-304 -311 -317 -323 -329 -334 -336 -335 -332 -329 -327 -325 -322 -320 -320 -318 -308 -274 -207 -111 -1 45 -64 -321 -665 -1016 -1268 -1353 -1285 -1105 -858 -617 -435 -313 -228 -165 -115 -80 -56 -38 -21 -7 5 20 35 52 75 103 137 177	-291 -124 42 212 381	-8744 -8928 -9164 -9300 -9308	-5268 -5436 -5340 -5764 -5488	7192 7056 7264 7124 7156
17752	165	376	26	16	304	2	92	0	0	1	225 279 340 403 461 509 545 566 569 557 531 491 443 390 334 279 227 179 133 92 58 29 3 -19 -41 -60 -75 -88 -100 -110 -117 -121 -125 -124 -120 -112 -102 -94 -96 -106 -119 -135 -151 -164 -178 -191 -203 -212 -219 -226	533 664 771 838 875	-10636 -10744 -10044 -9156 -9280	-6160 -6636 -5832 -5484 -6172	6980 7356 7928 8336 8136
17753	165	376	26	16	304	2	92	0	0	0	-233 -240 -248 -254 -259 -263 -265 -267 -263 -248 -211 -144 -53 44 106 61 -116 -390 -705 -987 -1153 -1172 -1062 -858 -622 -415 -263 -154 -72 -11 32 62 86 107 125 141 157 173 189 205 223 248 280 318 364 417 473 527 573 609	915 948 943 910 851	-9260 -9348 -9076 -8608 -7944	-5956 -5520 -5380 -5584 -5824	7696 7268 6908 7280 7408
17754	165	372	26	16	304	2	92	0	0	1	631 635 624 599 561 515 461 401 337 272 210 150 97 51 14 -16 -38 -52 -59 -62 -62 -60 -54 -47 -40 -38 -38 -36 -32 -26 -21 -23 -32 -46 -61 -74 -86 -94 -102 -111 -118 -125 -130 -135 -137 -136 -134 -131 -128 -126	749 607 452 307 176	-8032 -8320 -8880 -9180 -9356	-5724 -5820 -5900 -6112 -6044	7412 7284 7148 7108 7180
17755	165	372	26	16	304	2	92	0	0	0	-124 -119 -107 -80 -27 55 152 230 223 86 -167 -484 -789 -992 -1040 -941 -740 -502 -285 -117 10 107 181 235 272 300 322 341 356 373 393 413 435 461 494 534 579 630 689 751 812 864 904 927 934 925 901 862 812 755	63 -29 -109 -204 -325	-9732 -10256 -10516 -9436 -9492	-6168 -6248 -5836 -4620 -4840	6496 6492 7232 7696 8056
17756	163	372	26	16	304	2	92	0	0	1	628 560 490 420 353 292 238 190 150 116 90 69 52 39 30 22 12 2 -6 -11 -14 -15 -19 -29 -42 -57 -73 -92 -112 -129 -146 -161 -174 -188 -199 -206 -211 -215 -219 -223 -225 -225 -224 -220 -206 -174 -116 -41 28 39	-458 -588 -690 -740 -724	-9304 -9348 -8556 -8520 -8436	-4932 -5516 -5564 -5384 -5400	7708 7460 7508 7360 7120
17757	163	372	26	16	304	2	92	0	0	0	-63 -284 -583 -898 -1154 -1282 -1255 -1093 -852 -612 -426 -298 -212 -148 -101 -72 -55 -38 -19 0 14 29 45 63 85 113 145 182 225 275 333 391 446 491 525 545 550 539 513 476 430 377 322 266 212 157 105 58 16 -20	-649 -531 -382 -214 -50	-8368 -8772 -9080 -9292 -9292	-5252 -5272 -5320 -5604 -5672	7180 7084 7060 7132 7208
17758	163	372	26	16	304	2	92	0	0	1	-47 -67 -79 -85 -85 -79 -72 -64 -55 -46 -41 -36 -29 -21 -17 -14 -15 -19 -24 -28 -33 -41 -49 -55 -61 -64 -64 -62 -60 -58 -55 -51 -50 -49 -49 -52 -51 -39 -7 55 145 238 276 178 -78 -435 -798 -1080 -1213 -1177	72 146 181 176 145	-9496 -10240 -10744 -9404 -9220	-5320 -6340 -6376 -5620 -6252	7192 7268 7648 8096 8288
17759	163	368	26	16	304	2	92	0	0	0	-1002 -742 -478 -271 -138 -59 -3 41 66 77 90 108 123 136 152 176 203 233 268 312 364 425 493 565 639 710 772 818 844 853 846 824 788 738 678 612 545 477 411 347 286 230 181 140 107 81 58 37 19 6	120 95 24 -96 -241	-9304 -9224 -9068 -8876 -8352	-6024 -5700 -5428 -5528 -5592	7492 7688 7704 7504 7376
17760	163	368	26	16	304	2	92	0	0	1	-6 -18 -29 -42 -55 -66 -71 -70 -66 -62 -61 -67 -78 -90 -102 -113 -125 -135 -142 -148 -151 -152 -149 -142 -133 -123 -113 -103 -94 -85 -74 -62 -39 7 80 180 272 285 150 -130 -480 -786 -937 -888 -682 -422 -193 -30 69 127	-399 -554 -678 -775 -860	-8056 -8224 -8656 -9080 -9116	-6136 -6120 -6004 -5872 -6184	7384 7168 7220 7244 7536
17761	163	380	26	16	304	2	92	0	0	1	166 189 194 193 197 207 213 215 216 222 232 245 266 297 336 381 435 493 553 608 652 683 698 698 684 659 627 586 540 492 442 392 342 294 249 210 177 151 131 113 98 84 72 61 53 47 41 36 30 26	-924 -959 -962 -932 -883	-9436 -10432 -10748 -9420 -9584	-6320 -6472 -6192 -4768 -4664	7220 6784 6988 8016 7740
17762	163	380	26	16	304	2	92	0	0	0	25 27 29 30 26 17 2 -15 -37 -61 -86 -109 -131 -155 -180 -208 -234 -256 -274 -291 -312 -334 -355 -373 -387 -396 -389 -355 -291 -202 -116 -112 -259 -535 -874 -1195 -1395 -1421 -1301 -1084 -829 -608 -454 -352 -278 -221 -179 -151 -132 -115	-833 -774 -681 -547 -379	-9624 -9484 -9096 -8360 -8332	-5108 -5536 -5500 -5556 -5440	7704 7492 7408 7544 7056
17763	163	376	26	16	304	2	92	0	0	1	-84 -69 -51 -32 -10 16 45 80 121 170 227 288 348 401 444 472 484 481 464 434 397 352 298 239 176 112 50 -6 -55 -97 -133 -164 -189 -208 -222 -230 -236 -241 -244 -247 -249 -250 -253 -254 -250 -245 -239 -237 -244 -254	-183 17 208 395 584	-8664 -8492 -8892 -9344 -9168	-5164 -4976 -5188 -5328 -5724	7192 7060 7068 6996 7056
17764	163	376	26	16	304	2	92	0	0	0	-262 -268 -274 -279 -281 -280 -277 -274 -271 -269 -264 -258 -252 -246 -241 -237 -234 -231 -219 -194 -143 -62 38 138 189 121 -75 -354 -661 -911 -1033 -1014 -882 -677 -456 -270 -132 -29 47 101 143 175 202 226 246 261 273 285 295 307	758 897 985 1003 945	-9256 -10472 -10208 -10176 -9484	-5620 -6172 -6292 -5928 -6136	7192 6852 7296 8304 8096
17765	163	380	26	16	304	2	92	0	0	1	324 346 374 410 455 507 560 614 662 699 720 726 715 690 653 606 551 491 431 370 308 250 197 151 115 85 62 46 37 34 38 46 52 58 61 63 68 78 86 93 95 91 81 66 45 24 7 -9 -26 -44	839 726 602 468 350	-8916 -9280 -9056 -8972 -8552	-5964 -6244 -5992 -5640 -5588	8392 7816 7628 7612 7464
17766	161	380	26	16	304	2	92	0	0	0	-60 -75 -87 -97 -105 -113 -120 -126 -135 -143 -150 -151 -139 -100 -34 48 106 82 -73 -349 -687 -1001 -1194 -1205 -1045 -793 -538 -337 -204 -119 -60 -15 13 32 55 84 111 133 155 178 203 229 258 293 335 381 431 485 538 586	221 76 -66 -193 -311	-8048 -8124 -8404 -8812 -9176	-5852 -6172 -6028 -6012 -5992	7352 7424 7312 6844 7060
17767	161	368	26	16	304	2	92	0	0	1	624 651 663 657 637 607 570 526 476 423 371 317 262 207 154 106 68 43 26 16 13 12 9 11 16 21 26 28 26 24 28 38 52 68 80 86 88 87 84 79 74 70 67 66 63 57 52 48 47 48	-397 -459 -502 -525 -542	-9216 -9408 -10604 -10684 -9792	-6048 -6160 -6404 -5992 -4912	7184 7232 6784 7092 7988
17768	161	368	26	16	305	2	92	0	0	0	50 54 60 65 70 78 93 129 199 301 401 425 309 45 -308 -655 -903 -984 -887 -672 -430 -229 -97 -27 13 37 45 38 30 30 30 25 20 23 31 42 57 81 115 155 204 260 320 379 432 474 502 513 509 489	-572 -615 -646 -642 -594	-9456 -9544 -9456 -8696 -8512	-4528 -4624 -4928 -5352 -5336	7932 7860 7312 7480 7356
17769	161	376	26	16	305	2	92	0	0	1	456 414 364 306 245 180 113 47 -15 -72 -122 -163 -193 -215 -229 -238 -246 -249 -248 -246 -242 -238 -235 -231 -226 -217 -205 -191 -182 -183 -197 -218 -238 -257 -276 -293 -306 -318 -326 -330 -335 -338 -336 -333 -332 -330 -327 -325 -321 -315	-493 -345 -185 -23 148	-8568 -8364 -8324 -9208 -9356	-5348 -5096 -5040 -5440 -5452	7392 7360 7308 7032 6896
17770	161	376	26	16	305	2	92	0	0	0	-284 -240 -165 -68 33 83 6 -210 -515 -842 -1102 -1221 -1193 -1051 -838 -612 -427 -294 -195 -120 -67 -29 -3 15 30 44 57 70 88 108 132 161 196 236 282 334 391 451 512 568 615 649 667 668 653 627 592 549 501 448	327 501 658 776 830	-9556 -9500 -10940 -10628 -10512	-5708 -5788 -6216 -5968 -5700	7128 6900 7092 7320 7836
17771	161	384	26	16	305	2	92	0	0	1	390 329 270 213 164 122 85 53 26 6 -10 -22 -32 -39 -44 -47 -49 -51 -51 -47 -39 -28 -19 -17 -21 -29 -40 -52 -63 -71 -78 -81 -81 -79 -74 -66 -55 -41 -26 -10 6 21 36 53 81 131 207 297 373 359	820 762 666 535 374	-9332 -8684 -8792 -9256 -9356	-5868 -6088 -6140 -5864 -5716	8024 8568 8088 7768 7532
17772	161	384	26	16	305	2	92	0	0	0	202 -82 -426 -752 -979 -1046 -955 -752 -503 -279 -119 -18 48 97 128 143 155 167 179 186 194 207 225 244 266 294 327 367 416 472 531 588 637 675 702 712 707 687 654 611 564 514 462 412 363 315 271 231 197 169	203 40 -106 -232 -335	-8928 -7996 -7928 -8336 -8752	-5648 -6060 -6056 -5940 -5968	7496 7044 7572 7200 7252
17773	161	372	26	16	305	2	92	0	0	1	146 126 109 97 88 83 81 80 77 69 59 51 50 52 58 62 62 59 53 42 28 16 5 -5 -13 -22 -28 -31 -30 -25 -17 -5 8 23 37 50 67 95 145 225 328 422 441 319 40 -331 -680 -905 -940 -793	-423 -507 -587 -660 -721	-9088 -9116 -9296 -10168 -10896	-6064 -6044 -6124 -6240 -5944	7356 7432 7400 6860 7424
17774	161	372	26	16	305	2	92	0	0	0	-541 -278 -62 89 179 235 273 295 305 316 333 350 361 371 384 399 416 435 460 490 526 570 618 667 712 745 767 777 774 755 721 674 615 547 472 393 312 233 155 80 12 -49 -102 -143 -173 -194 -210 -221 -229 -236	-767 -807 -844 -856 -819	-10208 -9752 -9272 -9316 -8916	-5344 -4860 -4884 -4948 -5408	8220 7984 7912 7756 7632
17775	161	372	26	16	305	2	92	0	0	1	-239 -240 -243 -246 -249 -248 -242 -229 -214 -200 -194 -195 -200 -208 -218 -228 -236 -244 -253 -260 -268 -276 -281 -283 -284 -281 -277 -273 -269 -266 -262 -252 -227 -174 -88 20 116 114 -47 -337 -688 -1015 -1221 -1263 -1161 -949 -688 -459 -297 -191	-737 -614 -451 -266 -82	-8480 -8456 -8632 -8308 -8868	-5360 -5252 -5364 -5252 -5420	7560 7340 7300 7252 7032
17776	161	380	26	16	305	2	92	0	0	1	-118 -64 -23 4 23 40 56 71 83 98 114 131 149 173 204 242 286 336 392 449 502 545 573 586 585 571 545 508 461 408 354 297 240 184 128 75 28 -12 -42 -64 -81 -92 -99 -104 -106 -104 -101 -98 -98 -101	101 286 459 603 715	-9072 -8824 -9632 -10272 -10596	-5504 -5716 -5544 -5672 -6064	6848 7016 7100 7036 7160
17777	161	380	26	16	305	2	92	0	0	0	-97 -94 -90 -89 -96 -107 -121 -137 -152 -163 -172 -183 -193 -201 -209 -215 -220 -221 -221 -223 -226 -229 -233 -233 -226 -206 -161 -84 13 107 148 70 -133 -417 -728 -989 -1123 -1115 -987 -782 -561 -376 -241 -141 -68 -14 24 54 82 110	791 832 849 853 834	-10632 -9988 -8472 -8712 -8744	-6332 -6244 -5948 -5800 -5716	7516 8076 8256 8128 7424
17778	161	380	26	16	305	2	92	0	0	1	137 161 183 202 222 247 279 318 361 409 464 525 588 647 698 738 763 771 760 735 696 649 597 539 475 410 346 284 226 175 131 97 70 50 33 22 16 14 15 19 24 29 32 38 46 56 67 74 73 68	776 669 522 352 169	-8584 -8304 -8260 -8408 -8792	-5468 -5732 -5968 -5996 -6152	7460 7616 7464 7424 7144
17779	161	380	26	16	305	2	92	0	0	0	61 51 41 31 25 19 13 8 7 8 10 14 17 21 26 33 38 43 54 81 134 213 297 339 284 97 -202 -548 -850 -1013 -990 -811 -552 -303 -115 9 88 144 183 204 217 231 249 267 286 309 338 372 408 447	-11 -176 -323 -452 -560	-8952 -9060 -9332 -9432 -10724	-6176 -6156 -6324 -6228 -5888	7172 7352 7320 7272 7304
17780	161	372	26	16	305	2	92	0	0	1	488 534 587 649 715 780 838 883 914 929 926 906 872 826 771 711 647 580 509 440 375 317 267 224 188 159 137 123 115 108 101 95 90 84 74 62 52 48 49 50 46 35 17 -6 -33 -66 -98 -130 -162 -193	-654 -739 -816 -892 -947	-10188 -9284 -9448 -9484 -9108	-5820 -5044 -5076 -5636 -6000	7996 8344 8336 7852 7772
17781	161	372	26	16	305	2	92	0	0	0	-222 -249 -271 -289 -302 -313 -322 -329 -335 -341 -349 -355 -348 -315 -247 -145 -37 4 -98 -359 -721 -1086 -1350 -1433 -1331 -1094 -805 -545 -360 -244 -169 -113 -72 -47 -28 -7 15 33 48 66 88 112 138 168 204 245 292 347 406 465	-939 -854 -706 -513 -304	-8856 -8668 -8396 -8340 -8268	-5764 -5572 -5644 -5304 -5084	7748 7564 7784 7280 7408
17782	161	376	26	16	305	2	92	0	0	1	516 556 583 596 594 577 548 507 458 402 345 285 221 158 98 44 -3 -41 -72 -96 -110 -117 -121 -125 -127 -130 -131 -131 -133 -135 -136 -133 -125 -115 -108 -106 -110 -113 -117 -123 -131 -138 -142 -143 -143 -145 -151 -157 -159 -158	-111 51 184 295 375	-8968 -9424 -9636 -9896 -10544	-5272 -5388 -5640 -5476 -5848	7124 7008 7064 6724 7012
17783	161	376	26	16	305	2	92	0	0	0	-154 -149 -146 -143 -140 -137 -133 -120 -86 -18 84 195 240 134 -131 -490 -852 -1114 -1199 -1112 -902 -643 -407 -232 -120 -48 4 39 57 70 85 98 106 113 121 129 135 141 152 173 202 239 285 338 393 442 482 509 522 520	421 442 442 432 446	-10604 -9696 -9296 -9080 -9024	-6032 -5672 -6112 -6100 -5992	7356 8692 8524 8568 8016
17784	161	380	26	16	305	2	92	0	0	1	475 437 390 336 280 223 165 107 50 -6 -57 -99 -129 -152 -167 -176 -178 -177 -172 -167 -161 -156 -150 -145 -138 -127 -114 -100 -88 -85 -91 -99 -109 -122 -133 -141 -148 -156 -165 -173 -182 -186 -187 -189 -193 -196 -199 -202 -203 -198	488 542 590 618 616	-9064 -8916 -8772 -7888 -7996	-5880 -5604 -6072 -5756 -6024	8048 7324 6848 7320 7400
17785	161	380	26	16	305	2	92	0	0	0	-183 -148 -84 3 98 164 132 -35 -304 -624 -915 -1086 -1100 -984 -782 -554 -360 -223 -125 -51 4 46 78 101 119 136 150 160 172 187 206 228 254 286 325 372 427 484 539 590 633 664 679 680 663 634 597 553 503 449	585 533 469 402 318	-8624 -8920 -9024 -8956 -10204	-5948 -5996 -6076 -5892 -6028	7160 6608 7244 7356 7064
17786	160	376	26	16	305	2	92	0	0	1	391 332 279 234 197 169 151 143 141 144 149 155 162 169 176 185 193 198 201 205 211 218 224 224 216 203 187 168 151 140 131 123 115 110 107 105 105 104 102 99 96 91 84 77 77 95 141 216 301 341	206 68 -86 -258 -438	-10572 -10988 -10116 -9712 -9132	-6124 -5664 -5004 -4792 -4852	7096 7644 7764 7828 7840
17787	160	376	26	16	305	2	92	0	0	0	261 34 -295 -643 -924 -1066 -1037 -867 -625 -389 -211 -101 -36 12 45 58 61 69 81 91 97 103 110 118 129 144 167 198 235 278 329 383 434 476 507 523 522 506 477 437 386 330 273 216 161 106 54 6 -38 -80	-603 -731 -804 -810 -756	-9260 -8876 -8572 -8716 -8420	-5116 -5264 -5252 -5084 -4992	7988 7236 7560 7400 7340
17788	160	372	26	16	305	2	92	0	0	1	-115 -141 -158 -166 -170 -174 -176 -178 -178 -178 -180 -184 -187 -186 -181 -176 -171 -171 -180 -193 -208 -226 -243 -256 -265 -272 -276 -279 -281 -281 -279 -274 -266 -258 -250 -243 -234 -227 -219 -203 -164 -91 12 115 140 17 -250 -602 -948 -1189	-666 -561 -451 -345 -244	-8700 -8832 -9272 -9628 -9600	-4988 -5120 -5416 -5756 -5624	7228 7160 6960 7036 6956
17789	160	372	26	16	305	2	92	0	0	0	-1256 -1146 -907 -623 -372 -192 -79 -6 47 82 97 107 124 146 166 186 208 229 248 267 292 323 360 403 452 505 557 603 639 663 671 662 639 603 557 503 443 378 310 239 168 102 40 -19 -72 -118 -156 -184 -205 -223	-154 -76 -8 48 100	-10144 -10488 -9840 -9384 -8996	-5616 -6116 -5696 -5908 -6128	6840 6728 7792 8080 8196
17790	160	380	26	16	305	2	92	0	0	1	-252 -263 -270 -275 -279 -282 -282 -278 -273 -264 -258 -257 -260 -262 -264 -267 -270 -272 -274 -275 -273 -270 -265 -257 -250 -243 -236 -227 -214 -200 -186 -173 -157 -127 -69 19 128 207 168 -29 -343 -696 -994 -1146 -1126 -966 -718 -459 -258 -127	170 258 336 387 408	-8908 -8748 -8792 -8780 -8404	-6324 -5792 -5608 -5456 -5768	7988 7612 7424 7424 7276
17791	160	380	26	16	305	2	92	0	0	1	-45 9 48 72 84 94 105 113 117 119 125 133 141 156 179 211 249 295 347 402 455 498 529 547 552 542 521 491 450 403 353 301 247 194 143 95 50 11 -24 -50 -69 -82 -95 -106 -115 -121 -124 -127 -131 -135	391 353 325 318 333	-8024 -8636 -8940 -8944 -8888	-5992 -6120 -6148 -6156 -6068	7328 7172 7160 7220 7344
17792	160	380	26	16	305	2	92	0	0	0	-138 -141 -144 -147 -150 -155 -164 -179 -197 -215 -230 -243 -251 -256 -261 -263 -262 -260 -254 -245 -233 -219 -202 -183 -162 -140 -111 -71 -10 82 194 305 380 360 212 -43 -356 -646 -823 -842 -724 -518 -292 -102 36 133 200 245 277 301	369 425 477 496 464	-9660 -10928 -11192 -10480 -9136	-6260 -6404 -5812 -4924 -4988	7188 7176 7732 7940 7756
17793	160	380	26	16	305	2	92	0	0	1	320 336 346 351 355 360 367 377 392 413 441 475 512 555 603 650 691 719 736 733 714 682 642 594 541 480 416 351 292 237 184 134 90 53 24 4 -9 -19 -27 -30 -29 -23 -15 -8 -5 -1 9 22 35 46	374 225 46 -117 -248	-8824 -9416 -9096 -8524 -8224	-4824 -5076 -5056 -4812 -4964	7932 7684 7404 7156 7248
17794	160	380	26	16	305	2	92	0	0	0	52 51 46 37 26 15 5 -5 -17 -25 -31 -35 -37 -37 -36 -32 -25 -16 -7 1 10 26 58 115 197 295 366 336 158 -141 -489 -797 -981 -997 -863 -631 -377 -171 -34 50 110 155 182 196 205 218 230 239 247 260	-350 -431 -506 -572 -620	-8124 -8488 -9232 -9476 -9736	-5304 -5056 -5488 -5084 -5280	7156 7164 6984 7048 7068
17795	160	376	26	16	305	2	92	0	0	1	278 299 327 364 408 459 517 580 645 704 752 788 810 813 798 766 720 661 596 524 447 368 287 208 131 55 -15 -78 -129 -169 -200 -223 -238 -248 -253 -255 -257 -261 -263 -261 -255 -243 -229 -215 -206 -202 -201 -202 -207 -216	-649 -671 -659 -591 -481	-9660 -10316 -10832 -9584 -9312	-5040 -5380 -6300 -5540 -5956	7100 7108 7440 7992 8364
17796	160	376	26	16	305	2	92	0	0	0	-223 -228 -232 -236 -241 -247 -253 -256 -257 -258 -256 -252 -246 -239 -229 -212 -184 -133 -49 63 170 200 90 -172 -531 -890 -1140 -1203 -1070 -801 -498 -243 -60 60 143 209 259 302 352 411 466 509 544 579 614 648 681 719 760 805	-347 -183 -32 42 11	-9032 -8728 -8668 -8896 -8632	-6048 -5732 -5928 -4812 -5220	8148 7704 7568 7156 7332
17797	160	380	26	16	305	2	92	0	0	1	907 960 1008 1047 1074 1087 1084 1065 1029 979 919 851 778 703 626 549 473 397 326 262 206 158 120 92 71 55 43 34 25 19 14 11 7 5 8 14 21 30 39 41 38 32 23 15 10 5 -2 -12 -20 -26	-95 -243 -394 -514 -574	-8296 -8508 -8632 -9024 -9320	-5752 -6320 -6052 -5940 -5736	7316 7396 7120 7204 7088
17798	160	380	26	16	305	2	92	0	0	0	-32 -36 -42 -51 -61 -70 -76 -80 -85 -89 -84 -57 1 84 172 203 109 -127 -458 -813 -1094 -1218 -1181 -1022 -798 -583 -420 -306 -225 -165 -119 -84 -58 -33 -9 14 35 58 85 116 150 191 238 292 354 425 503 583 657 723	-577 -536 -454 -332 -195	-9428 -10432 -10592 -10828 -10320	-5900 -6352 -6216 -5372 -4428	7620 6916 7176 7280 7852
17799	160	380	26	16	305	2	92	0	0	1	773 808 827 828 810 775 731 681 627 570 507 442 381 325 272 222 177 139 107 81 59 42 33 28 23 15 6 -2 -9 -11 -11 -8 -3 -2 -6 -14 -24 -34 -42 -46 -47 -48 -50 -55 -61 -65 -64 -60 -59 -59	-77 7 47 49 38	-9152 -8964 -9084 -8604 -7936	-4732 -4996 -5384 -5452 -5084	7820 7912 7556 7412 7608
17800	160	380	26	16	305	2	92	0	0	0	-57 -52 -47 -39 -24 5 58 135 217 280 273 154 -69 -353 -645 -868 -964 -927 -781 -573 -367 -206 -90 -5 57 99 129 151 168 184 199 214 228 245 263 281 302 331 366 406 453 506 560 612 655 687 702 701 686 658	34 37 35 14 -18	-8292 -8200 -8864 -9804 -9836	-5248 -4992 -5000 -5136 -5208	7472 7452 7792 7204 7128
17801	160	376	26	16	305	2	92	0	0	1	618 568 512 453 392 329 267 205 146 95 55 24 0 -16 -28 -37 -41 -42 -44 -48 -57 -68 -80 -92 -102 -115 -132 -152 -172 -192 -215 -241 -266 -287 -303 -317 -328 -338 -346 -347 -344 -338 -329 -317 -302 -286 -267 -241 -206 -150	-47 -72 -84 -57 8	-9808 -9860 -10596 -10760 -9768	-5448 -5684 -6352 -6520 -5416	7336 7340 7368 7948 8268
17802	160	376	26	16	305	2	92	0	0	0	-64 44 137 142 1 -282 -643 -988 -1225 -1290 -1178 -942 -666 -424 -252 -145 -73 -18 18 39 57 79 102 124 144 168 195 225 262 307 362 425 495 571 652 735 812 875 923 954 966 960 936 897 846 790 733 672 610 550	76 145 202 202 107	-9328 -8972 -8940 -8948 -8728	-6028 -6008 -5552 -5232 -4992	8736 8436 7892 7852 7688
17803	160	376	26	16	305	2	92	0	0	1	492 436 383 336 297 266 244 225 207 189 172 156 140 127 115 104 93 83 74 66 61 57 48 32 12 -8 -26 -45 -64 -82 -96 -109 -121 -130 -135 -137 -137 -136 -135 -132 -126 -118 -108 -89 -51 14 105 209 280 245	-55 -251 -452 -622 -717	-8108 -8148 -8476 -9000 -9040	-5296 -5848 -6016 -6036 -5924	7596 7496 7412 7168 6840
17804	160	376	26	16	305	2	92	0	0	0	-248 -610 -907 -1036 -979 -784 -537 -319 -162 -60 6 51 82 101 113 123 132 141 147 155 166 176 189 206 230 257 290 333 385 440 491 534 567 588 596 590 571 542 503 459 412 362 312 262 214 169 131 99 73 57	-738 -717 -669 -602 -531	-8572 -9848 -10700 -11200 -10880	-5832 -6192 -6380 -6172 -5552	6304 7436 7228 7300 8444
17805	160	380	26	16	305	2	92	0	0	1	51 52 56 61 64 66 68 68 64 57 50 44 39 39 39 33 19 0 -22 -46 -71 -94 -117 -140 -160 -179 -197 -213 -226 -236 -242 -246 -247 -247 -248 -248 -242 -222 -182 -112 -21 72 123 75 -92 -349 -646 -901 -1036 -1031	-461 -392 -325 -255 -172	-9612 -9288 -9372 -9176 -8448	-5072 -5256 -5172 -5540 -5460	8524 8420 7972 7720 7624
17806	160	380	26	16	305	2	92	0	0	0	-907 -713 -512 -352 -239 -157 -96 -50 -16 13 39 62 83 100 113 128 145 163 182 204 230 263 302 348 399 449 495 531 554 563 559 543 517 478 429 375 317 258 200 142 86 31 -18 -60 -95 -121 -139 -153 -167 -176	-73 35 138 227 309	-7960 -8036 -8648 -8800 -9292	-5204 -5152 -4888 -4968 -5296	7508 7000 6984 6816 7200
17807	160	380	26	16	305	2	92	0	0	1	-182 -183 -183 -183 -186 -188 -184 -176 -169 -162 -158 -158 -158 -157 -155 -155 -158 -161 -164 -165 -165 -166 -166 -167 -168 -169 -169 -169 -170 -171 -175 -172 -155 -112 -41 46 120 124 11 -224 -538 -861 -1108 -1208 -1152 -981 -758 -550 -395 -291	396 487 570 641 693	-9256 -9184 -9744 -11192 -10136	-5488 -5556 -5580 -6244 -6340	7364 7064 6976 7424 7848
17808	160	376	26	16	305	2	92	0	0	1	-223 -180 -158 -150 -148 -144 -140 -138 -140 -144 -146 -142 -129 -106 -73 -32 17 74 135 197 255 305 343 366 373 365 344 312 274 230 182 135 87 38 -9 -56 -98 -132 -158 -176 -187 -194 -200 -205 -208 -210 -211 -214 -222 -231	727 763 808 845 859	-9476 -9248 -8852 -8640 -8732	-6184 -6332 -5832 -5468 -5396	8216 8132 7828 7812 7824
17809	160	376	26	16	305	2	92	0	0	0	-233 -229 -221 -214 -208 -205 -206 -210 -217 -227 -234 -234 -234 -239 -247 -254 -259 -258 -252 -250 -252 -253 -251 -246 -242 -237 -226 -199 -141 -55 39 92 37 -165 -485 -835 -1105 -1199 -1101 -877 -628 -421 -274 -180 -117 -70 -38 -17 0 21	844 787 700 608 526	-8312 -8156 -8544 -8824 -8976	-5524 -6108 -5904 -5896 -5956	7684 7556 7304 7116 7332
17810	160	380	26	16	305	2	92	0	0	1	40 54 69 90 113 135 157 184 217 260 312 372 433 488 532 563 578 577 563 535 495 445 387 325 261 196 134 75 19 -35 -84 -128 -164 -192 -211 -223 -225 -222 -217 -214 -212 -214 -218 -224 -229 -230 -226 -221 -215 -208	452 383 323 294 297	-9112 -9696 -11180 -10876 -10640	-5836 -6028 -6272 -5696 -5380	6792 7432 6912 7672 8304
17811	160	380	26	16	305	2	92	0	0	0	-203 -204 -208 -213 -216 -219 -223 -228 -231 -231 -229 -225 -220 -214 -206 -197 -191 -189 -188 -183 -171 -143 -89 -5 100 183 169 14 -271 -633 -974 -1181 -1206 -1065 -820 -564 -365 -228 -138 -76 -30 0 19 37 59 81 105 133 157 177	345 373 396 418 444	-9296 -9012 -8616 -8412 -8424	-4756 -5192 -5372 -5248 -5304	7696 7420 7316 7380 7288
17812	160	380	26	16	305	2	92	0	0	1	198 226 266 315 369 424 483 545 606 659 702 732 746 743 725 696 664 626 582 531 475 419 364 309 256 206 163 131 109 96 90 88 85 81 74 70 68 67 65 63 63 67 68 67 60 48 32 15 -3 -22	473 495 496 471 436	-8684 -8844 -9088 -9264 -9476	-5156 -5088 -5160 -5252 -5424	7104 7080 6964 7036 7120
17813	160	380	26	16	305	2	92	0	0	0	-33 -40 -49 -60 -71 -80 -84 -80 -75 -70 -69 -75 -84 -89 -84 -67 -35 18 94 186 279 313 223 -1 -313 -650 -922 -1055 -1044 -917 -718 -508 -338 -216 -130 -72 -34 -11 4 15 22 25 27 27 29 34 46 65 89 118	410 411 452 527 619	-9576 -10072 -10644 -9616 -9344	-5264 -5812 -6508 -6284 -6196	6944 6764 7044 7900 8044
17814	160	384	26	16	305	2	92	0	0	1	154 199 251 308 363 410 447 473 484 482 466 437 397 350 301 247 191 133 76 22 -21 -54 -81 -105 -126 -139 -143 -139 -131 -125 -121 -119 -117 -113 -105 -96 -89 -84 -82 -83 -89 -99 -111 -123 -132 -138 -142 -146 -150 -152	718 805 848 836 776	-9020 -9088 -8988 -8632 -8220	-5920 -5700 -5212 -5612 -5844	7796 7708 7300 7248 7284
17815	160	384	26	16	305	2	92	0	0	0	-153 -151 -146 -140 -138 -139 -139 -133 -125 -118 -106 -80 -22 67 170 247 240 100 -165 -504 -842 -1077 -1143 -1051 -847 -600 -382 -224 -113 -37 17 54 80 100 118 135 153 170 183 199 218 242 270 304 343 386 435 491 546 596	678 555 428 314 209	-8092 -8472 -8684 -8844 -9080	-5996 -6032 -6048 -6008 -5932	7292 7080 6792 7064 7032
17816	160	376	26	16	305	2	92	0	0	1	639 668 680 678 664 640 604 555 496 432 370 310 252 193 134 79 33 -7 -38 -59 -73 -81 -83 -83 -82 -80 -81 -88 -96 -98 -95 -88 -81 -79 -81 -79 -73 -65 -56 -48 -43 -40 -34 -22 -6 16 38 55 67 76	123 55 -4 -85 -208	-9220 -10112 -10416 -9600 -9760	-6268 -6160 -6016 -5136 -4924	6992 6540 7168 7512 7540
17817	160	376	26	16	305	2	92	0	0	0	83 90 96 101 113 143 205 303 415 480 430 229 -106 -500 -847 -1054 -1072 -919 -667 -409 -201 -60 31 94 136 159 171 184 198 211 221 229 238 251 270 293 323 360 404 459 520 584 647 702 745 776 789 784 766 735	-367 -538 -703 -831 -910	-9432 -9164 -8904 -8164 -8376	-5508 -5944 -5756 -5556 -5104	7588 7192 7264 7428 7300
17818	160	376	26	16	305	2	92	0	0	1	645 590 533 475 416 360 306 255 205 163 129 104 88 76 65 55 47 41 36 30 21 8 -4 -10 -11 -9 -8 -14 -27 -42 -59 -76 -96 -115 -131 -144 -155 -166 -177 -186 -194 -202 -210 -217 -223 -228 -232 -233 -229 -210	-966 -1020 -1069 -1094 -1072	-8524 -8664 -8764 -8972 -9628	-5056 -4864 -5164 -5400 -5812	7284 7240 7192 7140 7204
17819	160	376	26	16	305	2	92	0	0	0	-163 -83 27 140 182 76 -183 -552 -942 -1237 -1350 -1269 -1035 -738 -471 -277 -151 -70 -14 21 40 52 68 81 85 84 81 80 78 80 91 109 135 172 220 277 336 391 436 467 483 480 458 421 372 315 251 175 90 4	-1002 -897 -760 -606 -434	-9724 -11012 -11320 -9156 -8756	-5372 -6236 -6432 -5736 -6232	6876 7252 7628 8256 8444
17820	160	384	26	16	305	2	92	0	0	1	-80 -159 -232 -296 -351 -398 -433 -459 -477 -488 -493 -493 -490 -485 -480 -472 -463 -452 -435 -417 -398 -379 -365 -358 -353 -350 -349 -350 -350 -346 -341 -337 -334 -333 -334 -331 -323 -314 -307 -302 -298 -297 -292 -278 -253 -209 -137 -45 53 110	-223 17 242 424 545	-8956 -8940 -9244 -8884 -8312	-5800 -5952 -5520 -5228 -5448	7892 7860 7560 7336 7488
17821	160	384	26	16	305	2	92	0	0	0	49 -156 -461 -802 -1091 -1242 -1234 -1100 -882 -646 -455 -323 -236 -176 -132 -99 -74 -54 -37 -21 -6 9 27 46 67 93 124 159 201 252 306 362 418 469 511 542 557 556 541 515 482 443 399 352 301 247 193 141 96 58	599 605 587 561 532	-8092 -7984 -8920 -9252 -9164	-5824 -5924 -6020 -6088 -6108	7212 7120 7068 7204 7352
17822	160	380	26	16	305	2	92	0	0	1	26 1 -21 -38 -50 -58 -63 -65 -66 -67 -69 -73 -77 -78 -77 -75 -73 -74 -79 -86 -91 -97 -103 -108 -110 -109 -105 -100 -95 -91 -86 -76 -64 -50 -34 -23 -15 -6 13 47 104 190 292 378 382 250 -22 -378 -733 -993	499 457 399 303 169	-9328 -10008 -10564 -9912 -9676	-6268 -6060 -5648 -4592 -5024	7420 6828 7592 7860 7700
17823	160	380	26	16	305	2	92	0	0	0	-1091 -1018 -818 -566 -335 -163 -51 23 76 110 131 150 169 183 192 199 209 221 235 251 272 302 340 386 438 496 554 609 654 689 712 720 711 687 651 605 553 495 433 369 307 248 192 142 98 61 33 13 -1 -10	12 -157 -315 -435 -514	-9372 -9060 -8640 -8276 -8228	-5144 -5876 -5552 -5440 -5408	8036 7456 7412 7420 7564
17824	160	376	26	16	305	2	92	0	0	1	-15 -20 -25 -30 -34 -38 -43 -47 -49 -50 -49 -49 -55 -69 -83 -97 -109 -120 -130 -138 -144 -145 -142 -138 -131 -121 -108 -93 -75 -58 -42 -26 -10 10 47 113 211 324 385 305 54 -313 -699 -999 -1130 -1070 -861 -581 -314 -114	-565 -603 -647 -704 -764	-8364 -8604 -9312 -9468 -9884	-5436 -5372 -5436 -5252 -5960	7420 7424 7248 7300 7584
17825	160	380	26	16	305	2	92	0	0	1	88 140 176 193 204 221 245 265 278 293 315 343 373 407 446 492 545 603 666 727 783 829 860 872 864 838 798 745 681 608 529 445 360 277 196 118 45 -19 -72 -117 -153 -182 -206 -227 -245 -263 -282 -298 -316 -338	-827 -900 -958 -970 -915	-9968 -10556 -10424 -9964 -8816	-5888 -6208 -6252 -6200 -6680	7120 7384 7940 8476 8712
17826	160	380	26	16	305	2	92	0	0	0	-361 -380 -391 -396 -398 -402 -411 -423 -437 -450 -462 -471 -475 -475 -474 -472 -466 -455 -440 -421 -399 -374 -348 -322 -295 -267 -232 -183 -112 -12 112 236 291 201 -44 -388 -743 -1008 -1106 -1027 -818 -556 -322 -158 -58 2 44 70 80 86	-786 -596 -399 -241 -138	-8520 -8504 -8792 -8556 -8292	-7012 -6684 -6084 -5936 -6160	8408 8256 8000 7676 7776
17827	160	380	26	16	305	2	92	0	0	1	93 101 105 104 107 113 117 126 145 172 207 248 297 354 413 468 514 550 574 585 582 566 540 507 468 425 379 332 287 244 202 164 130 103 83 69 57 45 38 35 32 29 24 14 3 -7 -16 -21 -23 -22	-92 -86 -91 -92 -91	-7920 -8188 -8996 -9192 -9312	-6340 -6292 -6280 -6272 -6332	7904 7832 7544 7588 7460
17828	160	380	26	16	305	2	92	0	0	0	-21 -26 -37 -50 -61 -73 -82 -87 -91 -93 -92 -90 -85 -76 -64 -51 -38 -29 -20 -5 13 36 68 118 192 286 381 422 342 127 -187 -536 -822 -958 -928 -771 -551 -339 -177 -65 13 67 99 118 133 148 164 176 184 192	-101 -127 -156 -179 -199	-9292 -10268 -10572 -10508 -9820	-6040 -6196 -5832 -5152 -5036	7628 7412 7720 8196 8004
17829	160	380	26	16	305	2	92	0	0	1	202 213 228 249 275 304 340 381 429 480 531 575 610 634 645 641 625 596 556 511 461 408 354 300 246 194 146 104 65 31 1 -24 -47 -67 -83 -97 -112 -127 -144 -163 -178 -187 -194 -201 -208 -220 -235 -251 -267 -284	-219 -233 -235 -215 -162	-9032 -9044 -8904 -8560 -8616	-4716 -4572 -4996 -5216 -5476	8276 7848 7616 7796 7792
17830	160	380	26	16	305	2	92	0	0	0	-299 -309 -314 -316 -316 -316 -313 -305 -294 -282 -270 -260 -252 -247 -245 -239 -224 -186 -117 -23 77 128 52 -173 -496 -839 -1120 -1263 -1244 -1087 -841 -580 -368 -222 -127 -59 -10 22 42 60 80 99 115 129 146 165 187 213 242 275	-82 20 128 221 286	-8592 -8860 -8984 -9208 -9400	-5508 -5304 -5264 -5252 -5528	7448 7332 7204 6992 6940
17831	160	376	26	16	305	2	92	0	0	1	313 360 416 477 537 590 634 664 678 678 664 638 603 562 518 471 423 373 321 272 227 187 153 125 103 85 71 61 56 54 53 51 45 38 33 31 31 31 29 22 11 -1 -15 -31 -49 -66 -81 -94 -105 -115	321 322 303 278 254	-9720 -9728 -10812 -10624 -9452	-5444 -5492 -6160 -6192 -5732	6964 6952 7056 7388 8340
17832	160	376	26	16	305	2	92	0	0	0	-141 -151 -159 -166 -172 -178 -185 -195 -205 -207 -191 -144 -61 35 83 11 -206 -531 -880 -1157 -1282 -1220 -1010 -744 -501 -325 -218 -150 -93 -49 -22 2 34 69 100 130 163 201 241 285 332 386 442 502 567 632 692 740 775 796	245 274 323 350 328	-8676 -8688 -8952 -8824 -8464	-6044 -5832 -5552 -5304 -5496	8140 7888 7696 7556 7496
17833	160	376	26	16	305	2	92	0	0	1	801 792 767 728 677 614 543 469 395 324 255 185 116 52 -5 -53 -92 -121 -143 -161 -175 -185 -193 -200 -202 -200 -197 -193 -189 -182 -172 -156 -139 -126 -119 -118 -120 -122 -122 -119 -114 -111 -107 -102 -95 -88 -82 -77 -74 -71	262 171 73 -9 -57	-8352 -8384 -9032 -9248 -9256	-5908 -5912 -5908 -5948 -6008	7608 7504 7184 7100 7196
17834	160	376	26	16	305	2	92	0	0	0	-68 -67 -69 -71 -70 -55 -14 60 160 246 238 78 -223 -597 -944 -1151 -1170 -1028 -790 -542 -346 -213 -127 -69 -26 0 15 29 52 78 104 132 165 200 236 275 318 366 422 485 552 624 692 751 796 829 848 853 843 816	-80 -91 -93 -84 -75	-9296 -10544 -10556 -10500 -9868	-6096 -6672 -6128 -5372 -4704	7440 6644 7360 8032 8456
17835	160	380	26	16	305	2	92	0	0	1	778 729 675 620 563 502 440 380 322 270 226 191 160 131 104 79 55 35 16 -4 -25 -47 -68 -89 -110 -130 -152 -174 -200 -233 -268 -304 -339 -372 -399 -422 -440 -453 -464 -476 -484 -487 -486 -481 -473 -464 -453 -443 -431 -411	-77 -94 -106 -86 -19	-9564 -9000 -8844 -8408 -8424	-4944 -5324 -5548 -5528 -5560	7964 7740 7564 7560 7500
17836	160	380	26	16	305	2	92	0	0	0	-373 -307 -212 -107 -20 -17 -150 -400 -720 -1040 -1265 -1339 -1271 -1098 -874 -662 -498 -379 -289 -221 -170 -130 -98 -72 -50 -31 -12 9 31 56 83 113 144 179 217 264 318 375 432 483 525 552 564 560 541 512 476 435 387 336	106 277 456 611 735	-8320 -8184 -8848 -9204 -9392	-5424 -5364 -5196 -5260 -5780	7864 7428 7272 6840 7148
17837	160	384	26	16	305	2	92	0	0	1	284 227 171 117 69 28 -3 -28 -49 -65 -79 -88 -91 -89 -84 -76 -68 -63 -59 -52 -42 -28 -11 4 11 13 12 10 8 11 17 23 28 31 32 32 32 33 32 32 32 29 23 15 8 12 39 96 176 252	820 856 838 781 709	-9484 -9864 -11088 -10936 -9276	-5780 -5624 -6316 -6276 -6060	7088 7008 7012 7948 8736
17838	160	384	26	16	305	2	92	0	0	0	165 -81 -423 -791 -1097 -1260 -1251 -1097 -859 -613 -418 -284 -196 -135 -96 -77 -69 -59 -46 -31 -18 -4 12 30 52 79 112 152 199 253 312 373 434 489 535 565 577 571 551 520 481 436 388 338 288 239 194 151 110 73	636 581 557 551 527	-8872 -9016 -8996 -8860 -8436	-6328 -5852 -6096 -5164 -5576	8616 7964 7848 7652 7528
17839	160	376	26	16	305	2	92	0	0	1	41 16 -2 -11 -15 -19 -20 -17 -16 -17 -22 -32 -41 -45 -46 -48 -52 -57 -67 -81 -100 -122 -145 -166 -182 -197 -211 -222 -230 -234 -235 -234 -229 -221 -212 -201 -190 -177 -157 -121 -58 36 151 248 265 138 -137 -490 -813 -998	469 380 274 161 42	-8132 -8068 -8688 -9264 -9664	-5868 -6048 -5792 -5756 -5784	7672 7600 7340 7324 7384
17840	160	376	26	16	305	2	92	0	0	0	-984 -791 -507 -235 -27 110 194 249 286 305 308 309 312 312 308 304 306 314 327 344 370 406 449 502 565 635 707 776 841 894 929 943 936 911 872 822 765 702 636 567 499 434 376 327 288 261 246 239 234 228	-85 -214 -346 -491 -637	-9508 -9952 -10928 -10448 -10096	-5972 -6192 -5456 -4792 -4692	7208 7188 7660 8296 8276
17841	160	384	26	16	305	2	92	0	0	1	220 212 208 204 195 182 167 153 143 134 124 113 98 78 52 20 -20 -60 -96 -130 -161 -190 -220 -249 -277 -301 -321 -338 -352 -362 -370 -375 -376 -371 -355 -315 -244 -143 -26 40 -32 -266 -610 -978 -1264 -1382 -1323 -1127 -862 -615	-765 -861 -898 -858 -744	-9728 -9056 -8708 -8320 -8136	-4772 -5284 -5452 -5496 -5380	8096 7772 7588 7608 8044
17842	160	380	26	16	305	2	92	0	0	1	-435 -320 -250 -200 -161 -135 -116 -96 -75 -56 -41 -21 4 31 57 88 128 173 223 278 339 402 465 521 564 593 605 601 581 549 505 454 398 341 282 222 161 103 51 4 -37 -71 -97 -114 -126 -135 -141 -149 -157 -164	-564 -361 -178 -26 104	-8288 -8412 -9152 -9588 -9648	-5292 -5188 -5292 -5384 -5720	7512 7304 7080 6860 7052
17843	160	380	26	16	305	2	92	0	0	0	-171 -179 -188 -197 -206 -213 -218 -223 -233 -247 -260 -273 -286 -299 -310 -319 -325 -325 -322 -320 -316 -310 -302 -292 -280 -270 -261 -254 -247 -233 -204 -147 -60 43 141 175 81 -140 -443 -770 -1034 -1161 -1140 -999 -789 -575 -408 -293 -213 -158	219 325 421 511 596	-9812 -10572 -11212 -10508 -9012	-5792 -6080 -6484 -6208 -6176	7076 6932 7152 8252 8804
17844	160	384	26	16	305	2	92	0	0	1	-122 -99 -84 -70 -57 -47 -42 -36 -29 -23 -15 -3 15 39 70 113 163 218 274 327 372 404 423 425 412 390 359 321 277 229 181 136 91 49 12 -19 -41 -56 -62 -62 -55 -42 -24 -4 19 41 61 79 97 117	671 749 834 892 877	-8664 -8640 -8584 -8364 -8596	-6000 -6136 -6224 -5288 -5704	8716 8352 8104 7988 7488
17845	160	384	26	16	305	2	92	0	0	0	163 182 193 193 185 172 156 140 124 108 92 76 59 43 26 11 -3 -13 -22 -29 -36 -44 -48 -43 -22 25 100 190 267 272 149 -96 -412 -726 -946 -1005 -899 -674 -404 -164 14 137 225 290 335 363 384 404 421 433	773 591 355 99 -150	-7864 -8100 -8496 -9272 -9360	-5728 -5884 -6132 -6104 -6256	7584 7532 7308 7436 7212
17846	160	376	26	16	305	2	92	0	0	1	441 451 463 476 489 507 527 549 578 615 656 696 730 757 776 783 774 748 708 661 610 559 509 459 411 370 340 321 310 301 294 290 290 289 285 276 264 250 234 215 198 185 180 181 181 181 176 167 156 145	-373 -566 -733 -865 -950	-9212 -10020 -10764 -10136 -10100	-6260 -6444 -5828 -5052 -4916	7424 7116 7848 8696 8308
17847	160	376	26	16	305	2	92	0	0	0	133 119 103 85 67 53 42 30 19 9 -1 -13 -26 -40 -54 -71 -90 -106 -108 -84 -23 62 122 84 -103 -430 -816 -1157 -1365 -1388 -1241 -1004 -762 -572 -450 -378 -327 -289 -265 -250 -231 -207 -185 -166 -145 -120 -91 -60 -29 8	-1010 -1044 -1032 -955 -820	-9816 -9428 -8408 -7936 -7944	-5228 -5296 -5920 -5636 -5472	7968 7892 7896 7468 7560
17848	160	376	26	16	305	2	92	0	0	1	51 100 154 215 280 342 395 435 463 477 477 464 438 398 350 297 239 180 121 65 14 -32 -74 -113 -145 -169 -188 -201 -210 -219 -227 -232 -236 -237 -236 -236 -236 -236 -231 -222 -211 -201 -198 -199 -203 -212 -223 -236 -245 -249	-628 -412 -216 -66 47	-8104 -8760 -9232 -9560 -9680	-5364 -5096 -5136 -5308 -5856	7480 7020 6992 6936 6736
17849	160	376	26	16	305	2	92	0	0	0	-251 -253 -256 -259 -259 -255 -249 -240 -230 -220 -210 -199 -188 -176 -156 -113 -35 77 205 278 206 -24 -356 -708 -977 -1080 -1017 -833 -593 -368 -201 -98 -35 7 31 40 45 53 60 61 55 50 49 49 51 59 71 90 115 148	138 204 248 286 335	-10196 -10916 -10660 -9728 -9340	-5700 -6044 -6168 -6172 -6400	6796 6996 8280 8100 8540
17850	160	388	26	16	305	2	92	0	0	1	189 236 284 328 363 383 388 379 357 323 283 238 191 143 94 46 -1 -47 -91 -131 -164 -190 -207 -218 -224 -227 -228 -227 -226 -224 -219 -211 -202 -190 -176 -157 -136 -116 -103 -99 -101 -104 -105 -104 -100 -97 -97 -96 -94 -90	412 521 647 754 803	-8852 -8884 -8728 -8572 -7988	-6092 -5828 -5544 -5292 -5736	8072 7956 7696 7584 7396
17851	160	388	26	16	305	2	92	0	0	0	-87 -84 -83 -85 -88 -92 -96 -101 -102 -95 -72 -20 59 149 215 196 46 -214 -535 -845 -1051 -1101 -1009 -817 -590 -392 -251 -152 -81 -28 15 52 85 117 144 166 185 203 222 243 267 295 329 368 414 468 527 585 638 681	781 712 621 520 417	-8040 -8328 -8784 -9044 -9168	-5744 -5812 -5940 -5892 -5948	7396 7196 7416 7260 7260
17852	160	380	26	16	305	2	92	0	0	1	731 733 718 687 641 587 527 464 401 342 285 234 192 159 138 134 147 171 199 228 255 282 310 338 367 393 411 426 440 453 468 483 492 493 488 477 459 438 419 402 387 375 368 360 351 339 323 304 283 260	317 210 57 -156 -411	-9640 -11292 -10856 -10056 -9812	-6424 -6744 -5792 -4548 -4780	7096 6620 7776 8072 7844
17853	160	380	26	16	305	2	92	0	0	0	234 208 182 162 157 178 228 295 339 290 99 -215 -581 -913 -1134 -1193 -1087 -873 -633 -433 -300 -223 -171 -130 -108 -103 -100 -91 -80 -79 -87 -92 -89 -80 -58 -26 13 60 113 173 237 298 351 395 425 441 443 432 406 369	-666 -872 -969 -925 -751	-8988 -8992 -7912 -8064 -8456	-5064 -5564 -5656 -5560 -5448	7672 7364 7696 7340 7188
17854	160	376	26	16	305	2	92	0	0	1	326 279 229 178 125 73 24 -22 -64 -99 -127 -148 -164 -174 -183 -191 -198 -203 -206 -207 -207 -211 -213 -211 -204 -193 -182 -172 -169 -173 -180 -190 -202 -215 -226 -238 -250 -259 -269 -276 -279 -278 -274 -268 -260 -252 -244 -239 -233 -221	-501 -239 -2 199 355	-8420 -9104 -9276 -9464 -9672	-5384 -5372 -5472 -5820 -5656	7264 6848 6888 6944 6852
17855	160	376	26	16	305	2	92	0	0	0	-192 -132 -36 81 163 124 -76 -399 -756 -1050 -1196 -1162 -975 -707 -439 -229 -93 -12 40 69 75 69 65 65 64 59 53 52 54 57 67 85 110 141 179 224 273 320 359 389 407 412 403 381 346 301 251 201 150 98	453 500 522 548 597	-10300 -10928 -9980 -9560 -9256	-5856 -6572 -6272 -6624 -6064	6860 8224 8636 8528 7936
17856	158	388	26	16	305	2	92	0	0	1	47 -3 -50 -92 -126 -154 -175 -189 -197 -200 -198 -193 -188 -181 -171 -161 -148 -136 -124 -109 -89 -66 -41 -19 -5 1 3 2 0 -2 2 8 14 19 21 20 20 21 22 20 15 9 0 -11 -22 -28 -22 11 72 157	674 751 780 726 589	-8728 -8544 -8264 -7916 -8256	-5428 -5184 -5108 -5476 -5872	7644 7616 7456 7476 7476
17857	158	388	26	16	305	2	92	0	0	0	234 228 79 -199 -546 -874 -1078 -1107 -986 -770 -531 -336 -207 -124 -68 -25 7 33 58 82 103 117 128 141 157 175 198 226 258 293 335 386 445 505 562 613 656 684 692 682 653 610 556 495 428 357 285 216 153 95	412 237 93 -10 -75	-8568 -9112 -9324 -9328 -10724	-6124 -6140 -6080 -5960 -6472	7212 6700 7136 7416 7164
17858	158	384	26	16	306	2	92	0	0	1	47 7 -23 -42 -52 -53 -48 -40 -27 -12 5 20 35 49 63 79 98 116 134 146 150 147 143 140 136 134 133 130 124 119 110 97 86 75 63 50 38 26 16 6 -2 -1 20 71 150 242 309 285 127 -149	-115 -154 -207 -275 -346	-10968 -10892 -10864 -8984 -8772	-6072 -4720 -4404 -5068 -5440	7636 8276 8388 8040 7804
17859	158	384	26	16	306	2	92	0	0	0	-817 -1041 -1111 -1036 -857 -639 -446 -304 -205 -135 -86 -53 -30 -10 11 29 41 48 58 70 84 100 120 143 172 207 250 301 357 410 457 493 516 524 517 496 462 420 374 324 271 217 164 112 62 17 -23 -56 -82 -100	-416 -465 -467 -416 -331	-8608 -8160 -8100 -8208 -8540	-5392 -5440 -5424 -5392 -5204	7732 7240 7344 7292 7088
17860	158	384	26	16	306	2	92	0	0	1	-112 -121 -126 -127 -126 -121 -118 -116 -116 -113 -105 -96 -87 -82 -84 -90 -99 -112 -127 -142 -157 -173 -189 -205 -221 -234 -243 -250 -254 -255 -253 -250 -248 -246 -245 -234 -201 -137 -39 77 160 134 -44 -341 -674 -952 -1104 -1092 -933 -684	-231 -128 -24 69 122	-9180 -9620 -9288 -9800 -10776	-5248 -5796 -5940 -5612 -6104	6780 6320 6824 6704 6824
17861	158	380	26	16	306	2	92	0	0	1	-416 -194 -50 31 76 98 97 79 58 42 30 19 13 16 25 41 61 87 119 158 204 257 313 365 409 438 451 449 431 400 359 308 251 191 130 70 12 -42 -90 -133 -169 -197 -217 -227 -227 -221 -211 -199 -184 -167	140 164 202 261 356	-11064 -9820 -9432 -9136 -8784	-6784 -6740 -6312 -5896 -5736	7836 8616 8276 7888 7756
17862	158	380	26	16	306	2	92	0	0	0	-146 -123 -102 -83 -62 -36 -2 38 79 116 147 167 179 187 191 192 190 187 178 166 154 140 124 110 97 80 61 44 26 5 -17 -39 -53 -41 7 86 169 192 89 -158 -501 -849 -1096 -1161 -1038 -794 -532 -320 -177 -88	436 419 301 118 -86	-8592 -8072 -7960 -8036 -8468	-5236 -5232 -5640 -5988 -6016	7656 7412 7372 7356 7192
17863	158	384	26	16	306	2	92	0	0	1	-25 29 70 100 131 165 196 220 244 273 302 328 355 389 428 469 513 563 617 670 716 750 771 780 773 752 715 667 611 549 484 418 353 289 229 177 131 95 69 52 44 46 58 76 101 130 159 186 207 222	-269 -407 -497 -562 -638	-9456 -9264 -9124 -9440 -10820	-6008 -5924 -6032 -6288 -6016	6908 6912 7068 6908 6916
17864	158	384	26	16	306	2	92	0	0	0	231 238 242 245 245 244 239 227 213 198 179 159 139 121 105 95 89 86 88 95 103 113 123 130 133 132 125 119 127 161 224 311 387 373 213 -75 -432 -779 -1023 -1111 -1051 -884 -676 -495 -375 -304 -261 -233 -217 -216	-731 -819 -908 -995 -1027	-10452 -9972 -9888 -9496 -8836	-5388 -4588 -4472 -4680 -5556	7904 8264 7656 8000 7868
17865	158	384	26	16	306	2	92	0	0	1	-224 -233 -244 -258 -267 -270 -267 -261 -247 -223 -193 -158 -114 -63 -7 50 105 155 195 220 227 221 205 179 146 104 56 5 -45 -94 -141 -186 -229 -268 -300 -322 -337 -348 -354 -355 -354 -349 -340 -330 -321 -314 -309 -304 -298 -291	-955 -780 -510 -170 184	-8232 -7948 -8248 -8488 -8596	-5816 -5632 -5744 -5312 -5200	7688 7484 7356 7200 7056
17866	158	384	26	16	306	2	92	0	0	0	-276 -276 -282 -290 -298 -303 -304 -304 -307 -310 -313 -314 -312 -308 -302 -294 -286 -282 -277 -271 -265 -254 -232 -192 -125 -35 57 121 96 -48 -282 -565 -837 -1024 -1080 -1010 -846 -636 -443 -299 -194 -115 -56 -10 30 66 100 127 148 166	507 778 987 1116 1160	-8976 -9656 -9524 -10012 -10988	-5352 -5448 -5520 -5676 -6128	6892 6964 7076 6912 7020
17867	158	384	26	16	306	2	92	0	0	1	183 198 211 224 238 256 281 311 350 396 445 492 530 557 570 568 552 523 483 433 377 318 256 194 134 78 25 -23 -63 -92 -113 -124 -128 -126 -119 -105 -91 -78 -69 -64 -57 -45 -27 -6 14 30 42 49 51 50	1134 1060 967 873 775	-10916 -9892 -9232 -9096 -8828	-6296 -6336 -6056 -5896 -5536	8420 8672 8192 7784 7848
17868	158	384	26	16	306	2	92	0	0	0	49 49 52 58 68 80 93 107 119 128 135 140 144 146 146 146 148 161 202 271 351 402 368 203 -83 -426 -745 -949 -972 -828 -587 -341 -150 -30 40 88 123 140 145 151 163 178 191 204 217 233 250 272 300 333	651 482 269 37 -186	-8640 -7900 -7760 -8000 -8468	-5068 -5548 -5984 -6008 -6080	7548 7428 7524 7808 6940
17869	158	372	26	16	306	2	92	0	0	1	370 414 468 528 584 634 675 704 722 727 717 697 669 634 596 557 520 486 455 425 391 356 323 295 270 246 223 202 182 169 160 153 148 143 140 142 155 180 213 248 280 306 326 340 346 343 332 319 300 277	-372 -521 -655 -782 -921	-9172 -9296 -9488 -10404 -11188	-5972 -5780 -5964 -6216 -6160	6936 7024 7112 6816 7072
17870	158	372	26	16	306	2	92	0	0	0	252 228 208 194 183 173 165 158 153 152 154 157 166 195 257 351 455 500 415 175 -169 -535 -831 -973 -928 -743 -507 -297 -156 -79 -36 -6 9 4 -6 -9 -10 -15 -22 -25 -25 -25 -24 -17 -1 24 55 87 124 165	-1073 -1215 -1316 -1347 -1269	-10252 -10116 -9592 -9060 -8468	-4700 -4868 -4820 -4952 -5492	8280 8200 7968 7448 7548
17871	158	388	26	16	306	2	92	0	0	1	207 247 279 299 306 302 287 258 218 173 125 73 21 -31 -81 -128 -172 -212 -246 -270 -287 -298 -305 -310 -313 -313 -312 -309 -302 -297 -294 -293 -291 -288 -283 -276 -271 -272 -281 -293 -309 -325 -337 -348 -357 -364 -368 -370 -371 -373	-1077 -800 -472 -144 149	-7976 -8124 -8244 -8668 -9412	-5300 -5448 -5448 -5224 -5276	7564 7340 7168 7004 6728
17872	158	388	26	16	306	2	92	0	0	0	-372 -369 -365 -361 -357 -354 -350 -346 -338 -313 -260 -176 -72 28 54 -63 -308 -623 -935 -1157 -1232 -1172 -1010 -787 -563 -390 -269 -184 -123 -79 -48 -27 -12 0 11 21 32 44 59 78 99 123 149 179 214 253 294 337 378 411	398 609 775 896 976	-9520 -9940 -9820 -10568 -10488	-5552 -5652 -5584 -6228 -6332	7028 6896 6876 7544 8360
17873	158	388	26	16	306	2	92	0	0	1	436 424 398 362 316 263 207 149 90 31 -26 -81 -130 -173 -208 -234 -251 -263 -270 -273 -277 -281 -283 -282 -281 -280 -279 -277 -271 -260 -246 -236 -231 -231 -231 -231 -232 -229 -226 -223 -219 -216 -213 -210 -206 -198 -186 -173 -161 -150	1027 1065 1109 1164 1208	-9976 -9432 -8660 -8564 -8588	-6408 -6492 -5996 -5840 -5476	8428 8644 8164 7768 7624
17874	158	388	26	16	306	2	92	0	0	0	-136 -118 -93 -52 10 96 194 286 325 256 75 -184 -474 -719 -846 -836 -712 -515 -306 -136 -18 66 127 171 200 220 232 241 247 252 256 259 262 268 278 294 316 344 380 425 477 533 587 636 672 692 696 685 664 637	1206 1130 978 772 539	-8516 -7992 -8148 -8384 -8772	-5304 -5620 -5768 -6040 -6084	7560 7672 7556 7524 7264
17875	158	380	26	16	306	2	92	0	0	1	603 567 529 494 459 423 386 350 318 292 273 258 246 237 227 217 208 201 194 186 178 172 171 176 181 186 190 193 198 205 214 226 242 258 275 289 300 312 322 327 329 328 323 313 302 291 282 281 295 331	298 49 -192 -433 -689	-9288 -9168 -10092 -10968 -11428	-6260 -5844 -6316 -6360 -5776	7184 7544 6984 7116 7908
17876	158	380	26	16	306	2	92	0	0	0	397 486 564 565 437 167 -194 -554 -825 -936 -867 -658 -390 -146 32 143 211 261 296 312 318 326 336 345 352 361 371 379 386 397 411 429 451 477 504 532 558 576 585 584 569 543 507 462 409 350 286 222 160 100	-940 -1154 -1327 -1442 -1464	-10096 -9476 -9080 -8980 -8480	-4652 -4904 -4828 -5180 -5348	8516 8112 8052 7900 7672
17877	158	376	26	16	306	2	92	0	0	1	42 -13 -64 -108 -143 -171 -192 -208 -222 -237 -252 -268 -283 -295 -306 -316 -325 -335 -343 -346 -343 -339 -337 -339 -346 -355 -366 -378 -389 -395 -398 -398 -397 -397 -398 -396 -392 -387 -383 -378 -372 -364 -356 -346 -330 -299 -239 -147 -41 12	-1402 -1268 -1066 -815 -544	-8364 -8276 -8364 -8592 -9216	-5500 -5384 -5336 -5340 -5584	7484 7416 7216 7020 6872
17878	158	376	26	16	306	2	92	0	0	0	-74 -322 -674 -1039 -1323 -1448 -1396 -1199 -923 -648 -433 -293 -205 -137 -87 -59 -41 -21 1 18 29 41 56 75 96 119 148 183 224 274 332 393 451 499 536 558 565 557 532 490 439 383 325 266 205 143 81 24 -25 -67	-264 12 256 459 625	-9432 -9440 -9892 -10784 -9996	-5800 -5960 -5760 -6152 -6116	7028 7168 6568 7844 8188
17879	158	388	26	16	306	2	92	0	0	1	-103 -131 -151 -163 -170 -175 -181 -186 -190 -192 -194 -196 -199 -200 -198 -192 -183 -174 -166 -162 -161 -164 -170 -181 -190 -194 -196 -196 -197 -198 -199 -193 -182 -172 -161 -149 -137 -126 -114 -98 -78 -46 12 99 210 302 294 133 -161 -525	757 865 953 1007 1003	-9796 -9564 -8936 -8548 -8484	-6244 -6304 -5976 -5400 -5360	8400 8032 7868 7592 7628
17880	158	388	26	16	306	2	92	0	0	0	-1059 -1068 -908 -644 -375 -171 -45 29 78 113 132 140 144 152 157 158 158 161 166 172 185 208 238 270 306 348 395 444 489 523 542 545 533 509 476 438 395 349 299 251 207 166 129 95 66 43 28 20 18 17	817 684 569 489 428	-8000 -8044 -8440 -8996 -9340	-5860 -6368 -6444 -6668 -6240	7764 7188 6880 7096 7116
17881	158	384	26	16	306	2	92	0	0	1	18 20 20 23 27 27 23 15 4 -8 -17 -23 -28 -33 -40 -53 -69 -88 -109 -132 -154 -172 -185 -193 -199 -209 -218 -223 -225 -223 -218 -208 -195 -181 -164 -144 -107 -38 64 192 306 330 203 -60 -396 -714 -909 -926 -786 -549	365 301 233 135 11	-10032 -11048 -10772 -9956 -9808	-6516 -6748 -6180 -4904 -4836	6808 6656 7476 7788 8068
17882	158	388	26	16	306	2	92	0	0	1	-293 -84 55 141 197 231 251 261 269 276 280 282 284 286 283 276 274 279 294 318 350 391 436 480 519 550 573 586 584 569 544 511 471 426 377 328 280 232 185 142 102 69 44 28 15 5 -3 -9 -8 -4	-111 -219 -304 -344 -335	-8856 -8872 -8540 -8420 -8552	-5288 -5640 -5632 -5472 -5300	7488 7216 7140 7420 7420
17883	158	388	26	16	306	2	92	0	0	0	-1 1 1 -3 -7 -7 -4 -2 2 4 1 -7 -17 -29 -45 -59 -69 -79 -88 -96 -102 -110 -119 -125 -131 -138 -145 -151 -154 -156 -153 -143 -120 -69 13 107 181 171 30 -229 -555 -880 -1116 -1203 -1144 -975 -748 -527 -359 -239	-302 -274 -250 -209 -141	-8236 -8372 -8444 -8804 -9400	-5192 -5236 -5748 -5896 -5668	7236 6948 6924 7320 7656
17884	158	380	26	16	306	2	92	0	0	1	-154 -95 -56 -27 -3 20 39 56 69 78 85 94 104 116 131 155 185 218 256 300 346 391 432 462 479 484 475 452 419 381 338 290 240 192 146 103 61 18 -19 -46 -62 -74 -83 -89 -96 -100 -101 -101 -102 -103	-55 48 139 193 228	-10076 -11092 -9904 -9032 -9004	-6092 -6360 -6524 -6540 -6272	6896 7432 8184 8232 7944
17885	158	380	26	16	306	2	92	0	0	0	-105 -107 -106 -105 -104 -106 -108 -110 -115 -124 -134 -143 -148 -148 -145 -140 -133 -124 -113 -101 -87 -71 -52 -32 -12 10 39 81 148 243 353 433 412 250 -44 -405 -744 -973 -1030 -916 -680 -404 -168 -4 100 166 208 227 230 231	252 235 162 52 -87	-8740 -8528 -8112 -8184 -8036	-6108 -5176 -5628 -6068 -6236	7552 7692 7448 7792 7352
17886	158	380	26	16	306	2	92	0	0	1	236 244 252 257 259 262 268 278 295 318 346 381 427 479 529 574 612 642 659 659 641 610 574 533 487 436 383 332 282 234 187 143 106 77 58 49 48 56 68 79 90 100 106 107 102 94 83 72 63 57	-238 -374 -469 -535 -580	-8036 -9272 -9312 -9856 -10972	-6204 -6004 -5788 -6124 -6520	7228 7324 7284 6964 6816
17887	158	380	26	16	306	2	92	0	0	0	42 24 0 -26 -51 -71 -86 -99 -113 -128 -143 -153 -160 -163 -160 -153 -140 -125 -109 -94 -72 -37 15 94 207 349 493 564 483 236 -116 -477 -735 -814 -710 -476 -197 45 212 309 364 399 417 418 414 411 410 403 393 385	-598 -610 -667 -768 -880	-10380 -10296 -9760 -9308 -8628	-5404 -4824 -4816 -5180 -5656	7880 8080 8120 7944 7580
